Time [msec],x [m],y [m],z [m],Red,Green,Blue
0,-13.5,7.5,0,255,255,255
250,-13.5014,7.4998,0.0013,255,255,255
500,-13.5068,7.499,0.0063,255,255,255
750,-13.5163,7.4975,0.0151,255,255,255
1000,-13.5298,7.4955,0.0275,255,255,255
1250,-13.5472,7.4929,0.0437,255,255,255
1500,-13.5687,7.4896,0.0636,255,255,255
1750,-13.5941,7.4858,0.0871,255,255,255
2000,-13.6234,7.4814,0.1143,255,255,255
2250,-13.6567,7.4763,0.1451,255,255,255
2500,-13.6939,7.4707,0.1794,255,255,255
2750,-13.7349,7.4645,0.2174,255,255,255
3000,-13.7798,7.4577,0.259,255,255,255
3250,-13.8285,7.4504,0.3041,255,255,255
3500,-13.8811,7.4425,0.3527,255,255,255
3750,-13.9374,7.434,0.4049,255,255,255
4000,-13.9975,7.4249,0.4605,255,255,255
4250,-14.0614,7.4152,0.5196,255,255,255
4500,-14.1289,7.405,0.5822,255,255,255
4750,-14.2002,7.3943,0.6482,255,255,255
5000,-14.2752,7.383,0.7176,255,255,255
5250,-14.3539,7.3711,0.7904,255,255,255
5500,-14.4362,7.3587,0.8666,255,255,255
5750,-14.5221,7.3457,0.9461,255,255,255
6000,-14.6117,7.3322,1.029,255,255,255
6250,-14.7048,7.3182,1.1152,255,255,255
6500,-14.8015,7.3036,1.2048,255,255,255
6750,-14.9017,7.2885,1.2975,255,255,255
7000,-15.0055,7.2728,1.3936,255,255,255
7250,-15.1128,7.2566,1.4929,255,255,255
7500,-15.2235,7.2399,1.5954,255,255,255
7750,-15.3377,7.2227,1.7011,255,255,255
8000,-15.4554,7.205,1.8101,255,255,255
8250,-15.5765,7.1867,1.9221,255,255,255
8500,-15.7009,7.168,2.0374,255,255,255
8750,-15.8288,7.1487,2.1557,255,255,255
9000,-15.96,7.1289,2.2772,255,255,255
9250,-16.0946,7.1086,2.4018,255,255,255
9500,-16.2324,7.0878,2.5294,255,255,255
9750,-16.3736,7.0666,2.6601,255,255,255
10000,-16.5181,7.0448,2.7938,255,255,255
10250,-16.6658,7.0225,2.9305,255,255,255
10500,-16.8167,6.9998,3.0703,255,255,255
10750,-16.9709,6.9766,3.213,255,255,255
11000,-17.1282,6.9529,3.3586,255,255,255
11250,-17.2887,6.9287,3.5072,255,255,255
11500,-17.4524,6.904,3.6588,255,255,255
11750,-17.6192,6.8789,3.8132,255,255,255
12000,-17.7891,6.8533,3.9705,255,255,255
12250,-17.9622,6.8273,4.1307,255,255,255
12500,-18.1382,6.8008,4.2937,255,255,255
12750,-18.3174,6.7738,4.4595,255,255,255
13000,-18.4995,6.7464,4.6281,255,255,255
13250,-18.6847,6.7185,4.7996,255,255,255
13500,-18.8729,6.6902,4.9738,255,255,255
13750,-19.064,6.6614,5.1507,255,255,255
14000,-19.2581,6.6322,5.3304,255,255,255
14250,-19.4551,6.6026,5.5127,255,255,255
14500,-19.655,6.5725,5.6978,255,255,255
14750,-19.8578,6.542,5.8856,255,255,255
15000,-20.0634,6.511,6.0759,255,255,255
15250,-20.2719,6.4797,6.269,255,255,255
15500,-20.4832,6.4479,6.4646,255,255,255
15750,-20.6974,6.4157,6.6628,255,255,255
16000,-20.9143,6.3831,6.8636,255,255,255
16250,-21.1339,6.35,7.067,255,255,255
16500,-21.3563,6.3166,7.2729,255,255,255
16750,-21.5814,6.2827,7.4813,255,255,255
17000,-21.8093,6.2485,7.6922,255,255,255
17250,-22.0398,6.2138,7.9056,255,255,255
17500,-22.2729,6.1788,8.1215,255,255,255
17750,-22.5087,6.1434,8.3398,255,255,255
18000,-22.7471,6.1075,8.5605,255,255,255
18250,-22.9881,6.0713,8.7837,255,255,255
18500,-23.2317,6.0347,9.0092,255,255,255
18750,-23.4779,5.9977,9.2371,255,255,255
19000,-23.7265,5.9604,9.4673,255,255,255
19250,-23.9777,5.9226,9.6998,255,255,255
19500,-24.2314,5.8845,9.9347,255,255,255
19750,-24.4875,5.8461,10.1719,255,255,255
20000,-24.7461,5.8072,10.4113,255,255,255
20250,-25.0072,5.768,10.653,255,255,255
20500,-25.2706,5.7285,10.8969,255,255,255
20750,-25.5364,5.6886,11.143,255,255,255
21000,-25.8046,5.6483,11.3913,255,255,255
21250,-26.0752,5.6077,11.6418,255,255,255
21500,-26.3481,5.5668,11.8944,255,255,255
21750,-26.6232,5.5255,12.1492,255,255,255
22000,-26.9007,5.4838,12.4061,255,255,255
22250,-27.1804,5.4419,12.6651,255,255,255
22500,-27.4624,5.3995,12.9262,255,255,255
22750,-27.7466,5.3569,13.1893,255,255,255
23000,-28.033,5.314,13.4545,255,255,255
23250,-28.3216,5.2707,13.7217,255,255,255
23500,-28.6124,5.2271,13.9909,255,255,255
23750,-28.9052,5.1832,14.2621,255,255,255
24000,-29.2003,5.1389,14.5352,255,255,255
24250,-29.4974,5.0944,14.8103,255,255,255
24500,-29.7966,5.0495,15.0874,255,255,255
24750,-30.0978,5.0044,15.3663,255,255,255
25000,-30.4011,4.9589,15.6471,255,255,255
25250,-30.7064,4.9132,15.9298,255,255,255
25500,-31.0137,4.8671,16.2143,255,255,255
25750,-31.323,4.8208,16.5007,255,255,255
26000,-31.6342,4.7742,16.7889,255,255,255
26250,-31.9474,4.7273,17.0789,255,255,255
26500,-32.2625,4.6801,17.3706,255,255,255
26750,-32.5795,4.6326,17.6641,255,255,255
27000,-32.8983,4.5849,17.9594,255,255,255
27250,-33.219,4.5369,18.2563,255,255,255
27500,-33.5416,4.4886,18.555,255,255,255
27750,-33.8659,4.4401,18.8553,255,255,255
28000,-34.192,4.3912,19.1573,255,255,255
28250,-34.52,4.3422,19.4609,255,255,255
28500,-34.8496,4.2928,19.7662,255,255,255
28750,-35.181,4.2433,20.073,255,255,255
29000,-35.5141,4.1934,20.3815,255,255,255
29250,-35.8489,4.1434,20.6915,255,255,255
29500,-36.1853,4.0931,21.003,255,255,255
29750,-36.5234,4.0425,21.3161,255,255,255
30000,-36.8631,3.9917,21.6307,255,255,255
30250,-37.2045,3.9407,21.9468,255,255,255
30500,-37.5474,3.8894,22.2643,255,255,255
30750,-37.8919,3.838,22.5833,255,255,255
31000,-38.2379,3.7862,22.9037,255,255,255
31250,-38.5854,3.7343,23.2255,255,255,255
31500,-38.9344,3.6822,23.5487,255,255,255
31750,-39.285,3.6298,23.8733,255,255,255
32000,-39.637,3.5772,24.1993,255,255,255
32250,-39.9904,3.5244,24.5266,255,255,255
32500,-40.3452,3.4714,24.8552,255,255,255
32750,-40.7015,3.4182,25.1851,255,255,255
33000,-41.0592,3.3648,25.5163,255,255,255
33250,-41.4182,3.3111,25.8487,255,255,255
33500,-41.7785,3.2573,26.1824,255,255,255
33750,-42.1402,3.2032,26.5173,255,255,255
34000,-42.5032,3.149,26.8535,255,255,255
34250,-42.8675,3.0945,27.1908,255,255,255
34500,-43.233,3.0399,27.5292,255,255,255
34750,-43.5997,2.985,27.8689,255,255,255
35000,-43.9677,2.93,28.2096,255,255,255
35250,-44.3369,2.8748,28.5515,255,255,255
35500,-44.7073,2.8194,28.8944,255,255,255
35750,-45.0788,2.7639,29.2385,255,255,255
36000,-45.4515,2.7081,29.5835,255,255,255
36250,-45.8253,2.6522,29.9297,255,255,255
36500,-46.2001,2.5962,30.2768,255,255,255
36750,-46.5761,2.5399,30.6249,255,255,255
37000,-46.9531,2.4835,30.974,255,255,255
37250,-47.3311,2.427,31.3241,255,255,255
37500,-47.7102,2.3703,31.6751,255,255,255
37750,-48.0903,2.3134,32.027,255,255,255
38000,-48.4713,2.2564,32.3798,255,255,255
38250,-48.8533,2.1992,32.7335,255,255,255
38500,-49.2362,2.1419,33.088,255,255,255
38750,-49.62,2.0845,33.4434,255,255,255
39000,-50.0047,2.0269,33.7997,255,255,255
39250,-50.3903,1.9692,34.1567,255,255,255
39500,-50.7767,1.9113,34.5145,255,255,255
39750,-51.164,1.8534,34.8731,255,255,255
40000,-51.552,1.7953,35.2324,255,255,255
40250,-51.9409,1.7371,35.5925,255,255,255
40500,-52.3305,1.6787,35.9532,255,255,255
40750,-52.7209,1.6203,36.3147,255,255,255
41000,-53.112,1.5617,36.6768,255,255,255
41250,-53.5038,1.503,37.0396,255,255,255
41500,-53.8963,1.4443,37.403,255,255,255
41750,-54.2894,1.3854,37.767,255,255,255
42000,-54.6832,1.3264,38.1317,255,255,255
42250,-55.0776,1.2673,38.4969,255,255,255
42500,-55.4727,1.2082,38.8626,255,255,255
42750,-55.8683,1.1489,39.2289,255,255,255
43000,-56.2644,1.0896,39.5957,255,255,255
43250,-56.6611,1.0301,39.963,255,255,255
43500,-57.0583,0.9706,40.3308,255,255,255
43750,-57.4561,0.911,40.6991,255,255,255
44000,-57.8543,0.8514,41.0678,255,255,255
44250,-58.2529,0.7916,41.4369,255,255,255
44500,-58.652,0.7318,41.8064,255,255,255
44750,-59.0515,0.672,42.1763,255,255,255
45000,-59.4514,0.6121,42.5466,255,255,255
45250,-59.8517,0.5521,42.9172,255,255,255
45500,-60.2524,0.492,43.2882,255,255,255
45750,-60.6534,0.4319,43.6594,255,255,255
46000,-61.0546,0.3718,44.031,255,255,255
46250,-61.4562,0.3116,44.4028,255,255,255
46500,-61.8581,0.2513,44.7749,255,255,255
46750,-62.2602,0.1911,45.1472,255,255,255
47000,-62.6625,0.1308,45.5197,255,255,255
47250,-63.0651,0.0704,45.8924,255,255,255
47500,-63.4678,0.01,46.2653,255,255,255
47750,-63.8707,-0.0504,46.6383,255,255,255
48000,-64.2738,-0.1108,47.0115,255,255,255
48250,-64.677,-0.1713,47.3848,255,255,255
48500,-65.0803,-0.2317,47.7582,255,255,255
48750,-65.4836,-0.2922,48.1317,255,255,255
49000,-65.8871,-0.3527,48.5053,255,255,255
49250,-66.2906,-0.4132,48.8788,255,255,255
49500,-66.6941,-0.4737,49.2524,255,255,255
49750,-67.0976,-0.5343,49.6261,255,255,255
50000,-67.5011,-0.5948,49.9997,255,255,255
50250,-67.9046,-0.6553,50.3732,255,255,255
50500,-68.308,-0.7158,50.7467,255,255,255
50750,-68.7114,-0.7763,51.1202,255,255,255
51000,-69.1146,-0.8368,51.4935,255,255,255
51250,-69.5177,-0.8972,51.8667,255,255,255
51500,-69.9207,-0.9577,52.2398,255,255,255
51750,-70.3235,-1.0181,52.6128,255,255,255
52000,-70.7262,-1.0785,52.9856,255,255,255
52250,-71.1286,-1.1389,53.3582,255,255,255
52500,-71.5309,-1.1992,53.7306,255,255,255
52750,-71.9328,-1.2596,54.1028,255,255,255
53000,-72.3345,-1.3198,54.4747,255,255,255
53250,-72.736,-1.3801,54.8463,255,255,255
53500,-73.1371,-1.4402,55.2177,255,255,255
53750,-73.5379,-1.5004,55.5888,255,255,255
54000,-73.9384,-1.5605,55.9596,255,255,255
54250,-74.3385,-1.6205,56.33,255,255,255
54500,-74.7382,-1.6805,56.7001,255,255,255
54750,-75.1375,-1.7404,57.0697,255,255,255
55000,-75.5363,-1.8003,57.439,255,255,255
55250,-75.9348,-1.8601,57.8079,255,255,255
55500,-76.3327,-1.9198,58.1763,255,255,255
55750,-76.7302,-1.9795,58.5443,255,255,255
56000,-77.1271,-2.039,58.9118,255,255,255
56250,-77.5235,-2.0985,59.2789,255,255,255
56500,-77.9194,-2.158,59.6454,255,255,255
56750,-78.3147,-2.2173,60.0114,255,255,255
57000,-78.7094,-2.2765,60.3768,255,255,255
57250,-79.1035,-2.3357,60.7417,255,255,255
57500,-79.497,-2.3948,61.1059,255,255,255
57750,-79.8898,-2.4537,61.4696,255,255,255
58000,-80.2819,-2.5126,61.8326,255,255,255
58250,-80.6733,-2.5714,62.195,255,255,255
58500,-81.0641,-2.63,62.5568,255,255,255
58750,-81.454,-2.6886,62.9178,255,255,255
59000,-81.8433,-2.747,63.2782,255,255,255
59250,-82.2317,-2.8053,63.6378,255,255,255
59500,-82.6194,-2.8635,63.9967,255,255,255
59750,-83.0062,-2.9216,64.3549,255,255,255
60000,-83.3922,-2.9796,64.7122,255,255,255
60250,-83.7773,-3.0374,65.0688,255,255,255
60500,-84.1616,-3.0951,65.4245,255,255,255
60750,-84.5449,-3.1527,65.7794,255,255,255
61000,-84.9273,-3.2101,66.1335,255,255,255
61250,-85.3088,-3.2674,66.4867,255,255,255
61500,-85.6893,-3.3246,66.8389,255,255,255
61750,-86.0689,-3.3816,67.1903,255,255,255
62000,-86.4474,-3.4384,67.5408,255,255,255
62250,-86.8249,-3.4951,67.8903,255,255,255
62500,-87.2014,-3.5516,68.2388,255,255,255
62750,-87.5768,-3.608,68.5863,255,255,255
63000,-87.9511,-3.6642,68.9329,255,255,255
63250,-88.3243,-3.7203,69.2784,255,255,255
63500,-88.6963,-3.7762,69.6228,255,255,255
63750,-89.0673,-3.8319,69.9662,255,255,255
64000,-89.437,-3.8874,70.3086,255,255,255
64250,-89.8056,-3.9428,70.6498,255,255,255
64500,-90.1729,-3.998,70.9899,255,255,255
64750,-90.5391,-4.053,71.3288,255,255,255
65000,-90.9039,-4.1078,71.6666,255,255,255
65250,-91.2675,-4.1624,72.0032,255,255,255
65500,-91.6298,-4.2169,72.3387,255,255,255
65750,-91.9908,-4.2711,72.6729,255,255,255
66000,-92.3505,-4.3251,73.0058,255,255,255
66250,-92.7088,-4.379,73.3375,255,255,255
66500,-93.0657,-4.4326,73.668,255,255,255
66750,-93.4212,-4.486,73.9971,255,255,255
67000,-93.7753,-4.5392,74.325,255,255,255
67250,-94.128,-4.5922,74.6515,255,255,255
67500,-94.4792,-4.645,74.9766,255,255,255
67750,-94.829,-4.6975,75.3004,255,255,255
68000,-95.1772,-4.7499,75.6228,255,255,255
68250,-95.524,-4.802,75.9438,255,255,255
68500,-95.8691,-4.8538,76.2634,255,255,255
68750,-96.2128,-4.9055,76.5815,255,255,255
69000,-96.5548,-4.9569,76.8982,255,255,255
69250,-96.8952,-5.008,77.2133,255,255,255
69500,-97.234,-5.0589,77.527,255,255,255
69750,-97.5712,-5.1096,77.8391,255,255,255
70000,-97.9067,-5.16,78.1498,255,255,255
70250,-98.2406,-5.2102,78.4588,255,255,255
70500,-98.5727,-5.2601,78.7663,255,255,255
70750,-98.9031,-5.3098,79.0721,255,255,255
71000,-99.2317,-5.3592,79.3764,255,255,255
71250,-99.5586,-5.4083,79.679,255,255,255
71500,-99.8837,-5.4572,79.98,255,255,255
71750,-100.207,-5.5058,80.2793,255,255,255
72000,-100.5284,-5.5541,80.5769,255,255,255
72250,-100.848,-5.6021,80.8728,255,255,255
72500,-101.1658,-5.6499,81.1669,255,255,255
72750,-101.4816,-5.6973,81.4593,255,255,255
73000,-101.7956,-5.7445,81.7499,255,255,255
73250,-102.1076,-5.7914,82.0388,255,255,255
73500,-102.4176,-5.838,82.3258,255,255,255
73750,-102.7257,-5.8844,82.611,255,255,255
74000,-103.0318,-5.9304,82.8944,255,255,255
74250,-103.3359,-5.9761,83.1759,255,255,255
74500,-103.6379,-6.0215,83.4555,255,255,255
74750,-103.9379,-6.0666,83.7332,255,255,255
75000,-104.2358,-6.1114,84.009,255,255,255
75250,-104.5316,-6.1558,84.2829,255,255,255
75500,-104.8253,-6.2,84.5548,255,255,255
75750,-105.1169,-6.2438,84.8247,255,255,255
76000,-105.4063,-6.2873,85.0926,255,255,255
76250,-105.6935,-6.3305,85.3585,255,255,255
76500,-105.9785,-6.3734,85.6224,255,255,255
76750,-106.2613,-6.4159,85.8842,255,255,255
77000,-106.5419,-6.4581,86.1439,255,255,255
77250,-106.8202,-6.4999,86.4016,255,255,255
77500,-107.0962,-6.5414,86.6571,255,255,255
77750,-107.3699,-6.5826,86.9105,255,255,255
78000,-107.6413,-6.6234,87.1617,255,255,255
78250,-107.9103,-6.6639,87.4108,255,255,255
78500,-108.177,-6.704,87.6577,255,255,255
78750,-108.4413,-6.7437,87.9024,255,255,255
79000,-108.7032,-6.7831,88.1448,255,255,255
79250,-108.9627,-6.8221,88.385,255,255,255
79500,-109.2197,-6.8607,88.623,255,255,255
79750,-109.4743,-6.899,88.8586,255,255,255
80000,-109.7263,-6.9369,89.092,255,255,255
80250,-109.9759,-6.9745,89.323,255,255,255
80500,-110.2229,-7.0116,89.5517,255,255,255
80750,-110.4674,-7.0484,89.778,255,255,255
81000,-110.7093,-7.0848,90.002,255,255,255
81250,-110.9486,-7.1208,90.2235,255,255,255
81500,-111.1853,-7.1564,90.4426,255,255,255
81750,-111.4194,-7.1916,90.6593,255,255,255
82000,-111.6508,-7.2264,90.8736,255,255,255
82250,-111.8796,-7.2608,91.0853,255,255,255
82500,-112.1056,-7.2948,91.2946,255,255,255
82750,-112.329,-7.3284,91.5014,255,255,255
83000,-112.5496,-7.3615,91.7056,255,255,255
83250,-112.7674,-7.3943,91.9073,255,255,255
83500,-112.9825,-7.4267,92.1064,255,255,255
83750,-113.1948,-7.4586,92.3029,255,255,255
84000,-113.4042,-7.4901,92.4968,255,255,255
84250,-113.6109,-7.5212,92.6881,255,255,255
84500,-113.8146,-7.5518,92.8767,255,255,255
84750,-114.0155,-7.582,93.0627,255,255,255
85000,-114.2135,-7.6118,93.246,255,255,255
85250,-114.4086,-7.6412,93.4265,255,255,255
85500,-114.6007,-7.6701,93.6044,255,255,255
85750,-114.7898,-7.6985,93.7795,255,255,255
86000,-114.976,-7.7265,93.9519,255,255,255
86250,-115.1592,-7.7541,94.1215,255,255,255
86500,-115.3394,-7.7812,94.2882,255,255,255
86750,-115.5165,-7.8078,94.4522,255,255,255
87000,-115.6905,-7.834,94.6133,255,255,255
87250,-115.8615,-7.8597,94.7716,255,255,255
87500,-116.0293,-7.885,94.927,255,255,255
87750,-116.1941,-7.9098,95.0795,255,255,255
88000,-116.3556,-7.9341,95.229,255,255,255
88250,-116.514,-7.9579,95.3757,255,255,255
88500,-116.6693,-7.9813,95.5194,255,255,255
88750,-116.8213,-8.0041,95.6601,255,255,255
89000,-116.9701,-8.0265,95.7978,255,255,255
89250,-117.1156,-8.0484,95.9326,255,255,255
89500,-117.2579,-8.0698,96.0643,255,255,255
89750,-117.3969,-8.0907,96.1929,255,255,255
90000,-117.5325,-8.1111,96.3185,255,255,255
90250,-117.6648,-8.131,96.441,255,255,255
90500,-117.7938,-8.1504,96.5604,255,255,255
90750,-117.9194,-8.1693,96.6767,255,255,255
91000,-118.0416,-8.1877,96.7898,255,255,255
91250,-118.1604,-8.2056,96.8998,255,255,255
91500,-118.2758,-8.223,97.0066,255,255,255
91750,-118.3877,-8.2398,97.1102,255,255,255
92000,-118.4961,-8.2561,97.2106,255,255,255
92250,-118.6011,-8.2719,97.3077,255,255,255
92500,-118.7025,-8.2872,97.4016,255,255,255
92750,-118.8003,-8.3019,97.4922,255,255,255
93000,-118.8947,-8.3161,97.5795,255,255,255
93250,-118.9854,-8.3297,97.6635,255,255,255
93500,-119.0725,-8.3429,97.7442,255,255,255
93750,-119.156,-8.3554,97.8215,255,255,255
94000,-119.2359,-8.3674,97.8954,255,255,255
94250,-119.3121,-8.3789,97.966,255,255,255
94500,-119.3846,-8.3898,98.0331,255,255,255
94750,-119.4535,-8.4002,98.0968,255,255,255
95000,-119.5186,-8.41,98.1571,255,255,255
95250,-119.5799,-8.4192,98.2139,255,255,255
95500,-119.6375,-8.4279,98.2672,255,255,255
95750,-119.6913,-8.436,98.317,255,255,255
96000,-119.7413,-8.4435,98.3633,255,255,255
96250,-119.7875,-8.4504,98.406,255,255,255
96500,-119.8298,-8.4568,98.4452,255,255,255
96750,-119.8683,-8.4626,98.4808,255,255,255
97000,-119.9029,-8.4678,98.5128,255,255,255
97250,-119.9335,-8.4724,98.5412,255,255,255
97500,-119.9602,-8.4764,98.5659,255,255,255
97750,-119.983,-8.4799,98.587,255,255,255
98000,-120.0018,-8.4827,98.6044,255,255,255
98250,-120.0166,-8.4849,98.6182,255,255,255
98500,-120.0275,-8.4866,98.6282,255,255,255
98750,-120.0342,-8.4876,98.6344,255,255,255
99000,-120.0369,-8.488,98.6369,255,255,255
99250,-120.037,-8.488,98.637,255,255,255
99500,-120.037,-8.488,98.637,255,255,255
99750,-120.037,-8.488,98.637,255,255,255
100000,-120.037,-8.488,98.637,255,255,255
100250,-120.037,-8.488,98.637,255,255,255
100500,-120.037,-8.488,98.637,255,255,255
100750,-120.037,-8.488,98.637,255,255,255
101000,-120.037,-8.488,98.637,255,255,255
101250,-120.037,-8.488,98.637,255,255,255
101500,-120.037,-8.488,98.637,255,255,255
101750,-120.037,-8.488,98.637,255,255,255
102000,-120.037,-8.488,98.637,255,255,255
102250,-120.037,-8.488,98.637,255,255,255
102500,-120.037,-8.488,98.637,255,255,255
102750,-120.037,-8.488,98.637,255,255,255
103000,-120.037,-8.488,98.637,255,255,255
103250,-120.037,-8.488,98.637,255,255,255
103500,-120.037,-8.488,98.637,255,255,255
103750,-120.037,-8.488,98.637,255,255,255
104000,-120.037,-8.488,98.637,255,255,255
104250,-120.037,-8.488,98.637,255,255,255
104500,-120.037,-8.488,98.637,255,255,255
104750,-120.037,-8.488,98.637,255,255,255
105000,-120.037,-8.488,98.637,255,255,255
105250,-120.037,-8.488,98.637,255,255,255
105500,-120.037,-8.488,98.637,255,255,255
105750,-120.037,-8.488,98.637,255,255,255
106000,-120.037,-8.488,98.637,255,255,255
106250,-120.037,-8.488,98.637,255,255,255
106500,-120.037,-8.488,98.637,255,255,255
106750,-120.037,-8.488,98.637,255,255,255
107000,-120.037,-8.488,98.637,255,255,255
107250,-120.037,-8.488,98.637,255,255,255
107500,-120.037,-8.488,98.637,255,255,255
107750,-120.037,-8.488,98.637,255,255,255
108000,-120.037,-8.488,98.637,255,255,255
108250,-120.037,-8.488,98.637,255,255,255
108500,-120.037,-8.488,98.637,255,255,255
108750,-120.037,-8.488,98.637,255,255,255
109000,-120.037,-8.488,98.637,255,255,255
109250,-120.037,-8.488,98.637,255,255,255
109500,-120.037,-8.488,98.637,255,255,255
109750,-120.037,-8.488,98.637,255,255,255
110000,-120.037,-8.488,98.637,255,255,255
110250,-120.037,-8.488,98.637,255,255,255
110500,-120.037,-8.488,98.637,255,255,255
110750,-120.037,-8.488,98.637,255,255,255
111000,-120.037,-8.488,98.637,255,255,255
111250,-120.037,-8.488,98.637,255,255,255
111500,-120.037,-8.488,98.637,255,255,255
111750,-120.037,-8.488,98.637,255,255,255
112000,-120.037,-8.488,98.637,255,255,255
112250,-120.037,-8.488,98.637,255,255,255
112500,-120.037,-8.488,98.637,255,255,255
112750,-120.037,-8.488,98.637,255,255,255
113000,-120.037,-8.488,98.637,255,255,255
113250,-120.037,-8.488,98.637,255,255,255
113500,-120.037,-8.488,98.637,255,255,255
113750,-120.037,-8.488,98.637,255,255,255
114000,-120.037,-8.488,98.637,255,255,255
114250,-120.037,-8.488,98.637,255,255,255
114500,-120.037,-8.488,98.637,255,255,255
114750,-120.037,-8.488,98.637,255,255,255
115000,-120.037,-8.488,98.637,255,255,255
115250,-120.037,-8.488,98.637,255,255,255
115500,-120.037,-8.488,98.637,255,255,255
