Time [msec],x [m],y [m],z [m],Red,Green,Blue
0,0,0,0,255,255,255
250,0,0,0.0474,255,255,255
500,0,0,0.2195,255,255,255
750,0,0,0.5,255,255,255
1000,0,0,0.8703,255,255,255
1250,0,0,1.3121,255,255,255
1500,0,0,1.8083,255,255,255
1750,0,0,2.3437,255,255,255
2000,0,0,2.9005,255,255,255
2250,0,0,3.4611,255,255,255
2500,0,0,4.0076,255,255,255
2750,0,0,4.5223,255,255,255
3000,0,0,4.9874,255,255,255
3250,0,0,5.3853,255,255,255
3500,0,0,5.6982,255,255,255
3750,0,0,5.9084,255,255,255
4000,0,0,5.998,255,255,255
4250,0,0,6,255,255,255
4500,0,0,6,255,255,255
4750,0,0,6,255,255,255
5000,0.0172,-0.0001,6,255,255,255
5250,0.0817,-0.0003,6,255,255,255
5500,0.1912,-0.0008,6,255,255,255
5750,0.3427,-0.0014,6,255,255,255
6000,0.5331,-0.0022,6,255,255,255
6250,0.7595,-0.0032,6,255,255,255
6500,1.0188,-0.0043,6,255,255,255
6750,1.308,-0.0055,6,255,255,255
7000,1.6241,-0.0068,6,255,255,255
7250,1.9641,-0.0082,6,255,255,255
7500,2.3249,-0.0097,6,255,255,255
7750,2.7036,-0.0113,6,255,255,255
8000,3.0971,-0.013,6,255,255,255
8250,3.5024,-0.0147,6,255,255,255
8500,3.9165,-0.0164,6,255,255,255
8750,4.3364,-0.0181,6,255,255,255
9000,4.7591,-0.0199,6,255,255,255
9250,5.1814,-0.0217,6,255,255,255
9500,5.6005,-0.0234,6,255,255,255
9750,6.0133,-0.0252,6,255,255,255
10000,6.4168,-0.0269,6,255,255,255
10250,6.808,-0.0285,6,255,255,255
10500,7.1838,-0.0301,6,255,255,255
10750,7.5413,-0.0316,6,255,255,255
11000,7.8773,-0.033,6,255,255,255
11250,8.189,-0.0343,6,255,255,255
11500,8.4733,-0.0355,6,255,255,255
11750,8.7271,-0.0366,6,255,255,255
12000,8.9475,-0.0375,6,255,255,255
12250,9.1314,-0.0383,6,255,255,255
12500,9.2758,-0.0389,6,255,255,255
12750,9.3758,-0.0396,6,255,255,255
13000,9.4324,-0.0386,6,255,255,255
13250,9.4567,-0.0315,6,255,255,255
13500,9.4597,-0.014,6,255,255,255
13750,9.4525,0.0181,6,255,255,255
14000,9.4462,0.0692,6,255,255,255
14250,9.446,0.1408,6,255,255,255
14500,9.446,0.2287,6,255,255,255
14750,9.446,0.3322,6,255,255,255
15000,9.446,0.4501,6,255,255,255
15250,9.446,0.5817,6,255,255,255
15500,9.446,0.726,6,255,255,255
15750,9.446,0.8821,6,255,255,255
16000,9.446,1.0491,6,255,255,255
16250,9.446,1.226,6,255,255,255
16500,9.446,1.4119,6,255,255,255
16750,9.446,1.6058,6,255,255,255
17000,9.446,1.8061,6,255,255,255
17250,9.446,2.0122,6,255,255,255
17500,9.446,2.223,6,255,255,255
17750,9.446,2.4378,6,255,255,255
18000,9.446,2.6557,6,255,255,255
18250,9.446,2.8758,6,255,255,255
18500,9.446,3.0972,6,255,255,255
18750,9.446,3.319,6,255,255,255
19000,9.446,3.5405,6,255,255,255
19250,9.446,3.7608,6,255,255,255
19500,9.446,3.9788,6,255,255,255
19750,9.446,4.1939,6,255,255,255
20000,9.446,4.4052,6,255,255,255
20250,9.446,4.6117,6,255,255,255
20500,9.446,4.8126,6,255,255,255
20750,9.446,5.007,6,255,255,255
21000,9.446,5.1941,6,255,255,255
21250,9.446,5.373,6,255,255,255
21500,9.446,5.5429,6,255,255,255
21750,9.446,5.7028,6,255,255,255
22000,9.446,5.8519,6,255,255,255
22250,9.446,5.9893,6,255,255,255
22500,9.446,6.1142,6,255,255,255
22750,9.446,6.2257,6,255,255,255
23000,9.446,6.323,6,255,255,255
23250,9.446,6.4051,6,255,255,255
23500,9.446,6.4711,6,255,255,255
23750,9.446,6.5204,6,255,255,255
24000,9.446,6.5518,6,255,255,255
24250,9.446,6.5647,6,255,255,255
24500,9.446,6.565,6,255,255,255
24750,9.446,6.565,6,255,255,255
25000,9.446,6.565,6,255,255,255
25250,9.446,6.565,6.0867,255,255,255
25500,9.446,6.565,6.3798,255,255,255
25750,9.446,6.565,6.81,255,255,255
26000,9.446,6.565,7.3047,255,255,255
26250,9.446,6.565,7.7907,255,255,255
26500,9.446,6.565,8.1952,255,255,255
26750,9.446,6.565,8.51,255,255,255
27000,9.446,6.565,8.8225,255,255,255
27250,9.1927,6.389,9.0343,255,255,255
27500,8.8882,6.1775,9.2258,255,255,255
27750,8.4996,5.9078,9.4007,255,255,255
28000,8.0941,5.6263,9.5722,255,255,255
28250,7.5714,5.2631,9.7934,255,255,255
28500,6.8108,4.7342,10.1156,255,255,255
28750,5.9787,4.1556,10.468,255,255,255
29000,5.1855,3.6044,10.8037,255,255,255
29250,4.394,3.0544,11.1387,255,255,255
29500,3.6025,2.5044,11.4737,255,255,255
29750,2.8105,1.9534,11.8097,255,255,255
30000,2.019,1.4034,12.1447,255,255,255
30250,1.5062,1.0468,12.362,255,255,255
30500,1.0497,0.7293,12.5555,255,255,255
30750,0.6079,0.4222,12.7505,255,255,255
31000,0.2433,0.1688,12.8959,255,255,255
31250,0.0194,0.0134,12.8961,255,255,255
31500,-0.0564,-0.039,12.6839,255,255,255
31750,-0.0717,-0.0496,12.3065,255,255,255
32000,-0.0519,-0.0359,11.8284,255,255,255
32250,-0.0204,-0.0141,11.3132,255,255,255
32500,-0.0005,-0.0004,10.8249,255,255,255
32750,0,0,10.4333,255,255,255
33000,0,0,10.1581,255,255,255
33250,0,0,9.9649,255,255,255
33500,0,0,9.8104,255,255,255
33750,0,0,9.6638,255,255,255
34000,0,0,9.5236,255,255,255
34250,0,0,9.3892,255,255,255
34500,0,0,9.2598,255,255,255
34750,0,0,9.1348,255,255,255
35000,0,0,9.0133,255,255,255
35250,0,0,8.8947,255,255,255
35500,0,0,8.7782,255,255,255
35750,0,0,8.663,255,255,255
36000,0,0,8.5484,255,255,255
36250,0,0,8.4337,255,255,255
36500,0,0,8.3182,255,255,255
36750,0,0,8.201,255,255,255
37000,0,0,8.0815,255,255,255
37250,0,0,7.9589,255,255,255
37500,0,0,7.834,255,255,255
37750,0,0,7.709,255,255,255
38000,0,0,7.584,255,255,255
38250,0,0,7.459,255,255,255
38500,0,0,7.334,255,255,255
38750,0,0,7.209,255,255,255
39000,0,0,7.084,255,255,255
39250,0,0,6.959,255,255,255
39500,0,0,6.834,255,255,255
39750,0,0,6.709,255,255,255
40000,0,0,6.584,255,255,255
40250,0,0,6.459,255,255,255
40500,0,0,6.334,255,255,255
40750,0,0,6.209,255,255,255
41000,0,0,6.084,255,255,255
41250,0,0,5.959,255,255,255
41500,0,0,5.834,255,255,255
41750,0,0,5.709,255,255,255
42000,0,0,5.584,255,255,255
42250,0,0,5.459,255,255,255
42500,0,0,5.334,255,255,255
42750,0,0,5.209,255,255,255
43000,0,0,5.084,255,255,255
43250,0,0,4.959,255,255,255
43500,0,0,4.834,255,255,255
43750,0,0,4.709,255,255,255
44000,0,0,4.584,255,255,255
44250,0,0,4.459,255,255,255
44500,0,0,4.334,255,255,255
44750,0,0,4.209,255,255,255
45000,0,0,4.084,255,255,255
45250,0,0,3.959,255,255,255
45500,0,0,3.834,255,255,255
45750,0,0,3.709,255,255,255
46000,0,0,3.584,255,255,255
46250,0,0,3.459,255,255,255
46500,0,0,3.334,255,255,255
46750,0,0,3.209,255,255,255
47000,0,0,3.084,255,255,255
47250,0,0,2.959,255,255,255
47500,0,0,2.834,255,255,255
47750,0,0,2.709,255,255,255
48000,0,0,2.584,255,255,255
48250,0,0,2.459,255,255,255
48500,0,0,2.334,255,255,255
48750,0,0,2.209,255,255,255
49000,0,0,2.084,255,255,255
49250,0,0,1.959,255,255,255
49500,0,0,1.834,255,255,255
49750,0,0,1.709,255,255,255
50000,0,0,1.584,255,255,255
50250,0,0,1.459,255,255,255
50500,0,0,1.334,255,255,255
50750,0,0,1.209,255,255,255
51000,0,0,1.084,255,255,255
51250,0,0,0.959,255,255,255
51500,0,0,0.834,255,255,255
51750,0,0,0.709,255,255,255
52000,0,0,0.584,255,255,255
52250,0,0,0.459,255,255,255
52500,0,0,0.3238,255,255,255
52750,0,0,0.1793,255,255,255
53000,0,0,0.06,255,255,255
53250,0,0,0.0014,255,255,255
53500,0,0,0,255,255,255
53750,0,0,0,255,255,255
54000,0,0,0,255,255,255
