Time [msec],x [m],y [m],z [m],Red,Green,Blue
0,-7.5,-10,0,255,255,255
250,-7.5,-10,0.0474,255,255,255
500,-7.5,-10,0.2195,255,255,255
750,-7.5,-10,0.5,255,255,255
1000,-7.5,-10,0.8703,255,255,255
1250,-7.5,-10,1.3121,255,255,255
1500,-7.5,-10,1.8083,255,255,255
1750,-7.5,-10,2.3437,255,255,255
2000,-7.5,-10,2.9005,255,255,255
2250,-7.5,-10,3.4611,255,255,255
2500,-7.5,-10,4.0076,255,255,255
2750,-7.5,-10,4.5223,255,255,255
3000,-7.5,-10,4.9874,255,255,255
3250,-7.5,-10,5.3853,255,255,255
3500,-7.5,-10,5.6982,255,255,255
3750,-7.5,-10,5.9084,255,255,255
4000,-7.5,-10,5.998,255,255,255
4250,-7.5,-10,6,255,255,255
4500,-7.5,-10,6,255,255,255
4750,-7.5,-10,6,255,255,255
5000,-7.5,-10,6,255,255,255
5250,-7.5,-10,6,255,255,255
5500,-7.5,-10,6,255,255,255
5750,-7.5,-10,6,255,255,255
6000,-7.5,-10,6,255,255,255
6250,-7.5008,-9.9921,6.0154,255,255,255
6500,-7.5036,-9.9622,6.0742,255,255,255
6750,-7.5086,-9.9107,6.1754,255,255,255
7000,-7.5155,-9.8381,6.3179,255,255,255
7250,-7.5244,-9.7453,6.5003,255,255,255
7500,-7.5352,-9.6328,6.7213,255,255,255
7750,-7.5477,-9.5014,6.9794,255,255,255
8000,-7.562,-9.3517,7.2735,255,255,255
8250,-7.5779,-9.1845,7.6022,255,255,255
8500,-7.5954,-9.0003,7.9641,255,255,255
8750,-7.6145,-8.8,8.3579,255,255,255
9000,-7.635,-8.5841,8.7823,255,255,255
9250,-7.6568,-8.3534,9.2359,255,255,255
9500,-7.68,-8.1085,9.7175,255,255,255
9750,-7.7044,-7.8505,10.2248,255,255,255
10000,-7.7299,-7.581,10.7548,255,255,255
10250,-7.7564,-7.3008,11.3056,255,255,255
10500,-7.7839,-7.0109,11.8755,255,255,255
10750,-7.8122,-6.7123,12.4625,255,255,255
11000,-7.8413,-6.4059,13.0649,255,255,255
11250,-7.8711,-6.0926,13.6809,255,255,255
11500,-7.9014,-5.7733,14.3085,255,255,255
11750,-7.9323,-5.449,14.946,255,255,255
12000,-7.9635,-5.1205,15.5916,255,255,255
12250,-7.9951,-4.7889,16.2434,255,255,255
12500,-8.0269,-4.455,16.8996,255,255,255
12750,-8.0589,-4.1199,17.5583,255,255,255
13000,-8.0909,-3.7843,18.2178,255,255,255
13250,-8.1228,-3.4493,18.8763,255,255,255
13500,-8.1547,-3.1157,19.5318,255,255,255
13750,-8.1863,-2.7846,20.1826,255,255,255
14000,-8.2177,-2.4568,20.8269,255,255,255
14250,-8.2486,-2.1332,21.4628,255,255,255
14500,-8.2791,-1.8149,22.0884,255,255,255
14750,-8.3089,-1.5026,22.7021,255,255,255
15000,-8.3382,-1.1975,23.3018,255,255,255
15250,-8.3667,-0.9003,23.8859,255,255,255
15500,-8.3943,-0.612,24.4525,255,255,255
15750,-8.4211,-0.3335,24.9997,255,255,255
16000,-8.4468,-0.0658,25.5258,255,255,255
16250,-8.4713,0.1893,26.0273,255,255,255
16500,-8.4944,0.4299,26.5001,255,255,255
16750,-8.516,0.6554,26.9433,255,255,255
17000,-8.5361,0.8654,27.3562,255,255,255
17250,-8.5547,1.0596,27.7378,255,255,255
17500,-8.5716,1.2375,28.0876,255,255,255
17750,-8.587,1.3988,28.4045,255,255,255
18000,-8.6007,1.543,28.688,255,255,255
18250,-8.6128,1.6697,28.9371,255,255,255
18500,-8.6231,1.7785,29.151,255,255,255
18750,-8.6317,1.8691,29.3291,255,255,255
19000,-8.6385,1.941,29.4705,255,255,255
19250,-8.6435,1.9939,29.5743,255,255,255
19500,-8.6467,2.0272,29.6399,255,255,255
19750,-8.648,2.0407,29.6664,255,255,255
20000,-8.648,2.041,29.667,255,255,255
20250,-8.648,2.041,29.667,255,255,255
20500,-8.648,2.041,29.667,255,255,255
20750,-8.648,2.041,29.667,255,255,255
21000,-8.648,2.041,29.667,255,255,255
21250,-8.648,2.041,29.667,255,255,255
21500,-8.648,2.041,29.667,255,255,255
21750,-8.648,2.041,29.667,255,255,255
22000,-8.648,2.041,29.667,255,255,255
22250,-8.648,2.041,29.667,255,255,255
22500,-8.648,2.041,29.667,255,255,255
22750,-8.648,2.041,29.667,255,255,255
23000,-8.648,2.041,29.667,255,255,255
23250,-8.648,2.041,29.667,255,255,255
23500,-8.648,2.041,29.667,255,255,255
23750,-8.6337,2.0536,29.6652,255,255,255
24000,-8.5478,2.1175,29.6427,255,255,255
24250,-8.3355,2.2608,29.5722,255,255,255
24500,-7.9418,2.5114,29.4259,255,255,255
24750,-7.3607,2.8726,29.2013,255,255,255
25000,-6.6887,3.2964,28.9478,255,255,255
25250,-5.982,3.7548,28.6945,255,255,255
25500,-5.2953,4.2207,28.4697,255,255,255
25750,-4.6835,4.6669,28.3016,255,255,255
26000,-4.1883,5.0722,28.2115,255,255,255
26250,-3.7958,5.437,28.1854,255,255,255
26500,-3.4816,5.7639,28.2009,255,255,255
26750,-3.2212,6.0553,28.235,255,255,255
27000,-2.9939,6.3133,28.2686,255,255,255
27250,-2.8003,6.5329,28.2972,255,255,255
27500,-2.6487,6.7049,28.3195,255,255,255
27750,-2.5471,6.82,28.3345,255,255,255
28000,-2.504,6.8689,28.3409,255,255,255
28250,-2.503,6.87,28.341,255,255,255
28500,-2.503,6.87,28.341,255,255,255
28750,-2.503,6.87,28.341,255,255,255
29000,-2.503,6.87,28.341,255,255,255
29250,-2.503,6.87,28.341,255,255,255
29500,-2.503,6.87,28.341,255,255,255
29750,-2.503,6.87,28.341,255,255,255
30000,-2.503,6.87,28.341,255,255,255
30250,-2.503,6.87,28.341,255,255,255
30500,-2.503,6.87,28.341,255,255,255
30750,-2.503,6.87,28.341,255,255,255
31000,-2.503,6.87,28.341,255,255,255
31250,-2.503,6.87,28.341,255,255,255
31500,-2.503,6.87,28.341,255,255,255
31750,-2.503,6.87,28.341,255,255,255
32000,-2.503,6.87,28.341,255,255,255
32250,-2.5067,6.8584,28.3314,255,255,255
32500,-2.5446,6.8143,28.3242,255,255,255
32750,-2.6585,6.738,28.3726,255,255,255
33000,-2.8905,6.6302,28.53,255,255,255
33250,-3.2507,6.4923,28.8112,255,255,255
33500,-3.6787,6.3266,29.1424,255,255,255
33750,-4.137,6.1335,29.4778,255,255,255
34000,-4.5893,5.9135,29.7726,255,255,255
34250,-4.9993,5.6672,29.9821,255,255,255
34500,-5.3306,5.3952,30.0616,255,255,255
34750,-5.5569,5.0992,29.9801,255,255,255
35000,-5.6937,4.7886,29.7684,255,255,255
35250,-5.7638,4.4757,29.4703,255,255,255
35500,-5.7904,4.1728,29.1298,255,255,255
35750,-5.7964,3.8921,28.7907,255,255,255
36000,-5.8001,3.6442,28.4892,255,255,255
36250,-5.8033,3.4356,28.2356,255,255,255
36500,-5.8057,3.2737,28.0389,255,255,255
36750,-5.8073,3.1664,27.9083,255,255,255
37000,-5.808,3.121,27.8532,255,255,255
37250,-5.808,3.12,27.852,255,255,255
37500,-5.808,3.12,27.852,255,255,255
37750,-5.808,3.12,27.852,255,255,255
38000,-5.808,3.12,27.852,255,255,255
38250,-5.808,3.12,27.852,255,255,255
38500,-5.808,3.12,27.852,255,255,255
38750,-5.808,3.12,27.852,255,255,255
39000,-5.808,3.12,27.852,255,255,255
39250,-5.808,3.12,27.852,255,255,255
39500,-5.808,3.12,27.852,255,255,255
39750,-5.808,3.12,27.852,255,255,255
40000,-5.808,3.12,27.852,255,255,255
40250,-5.808,3.12,27.852,255,255,255
40500,-5.808,3.12,27.852,255,255,255
40750,-5.808,3.12,27.852,255,255,255
41000,-5.808,3.12,27.852,255,255,255
41250,-5.8108,3.1173,27.8551,255,255,255
41500,-5.823,3.1206,27.8732,255,255,255
41750,-5.8479,3.1541,27.9176,255,255,255
42000,-5.8884,3.2421,27.9997,255,255,255
42250,-5.9457,3.4056,28.1138,255,255,255
42500,-6.0174,3.6395,28.2178,255,255,255
42750,-6.1028,3.9265,28.2831,255,255,255
43000,-6.2012,4.2497,28.2815,255,255,255
43250,-6.3122,4.5919,28.1846,255,255,255
43500,-6.4349,4.9265,27.9707,255,255,255
43750,-6.5688,5.2228,27.6624,255,255,255
44000,-6.7132,5.4693,27.3014,255,255,255
44250,-6.8676,5.6552,26.9294,255,255,255
44500,-7.0316,5.7696,26.5883,255,255,255
44750,-7.1919,5.8051,26.3256,255,255,255
45000,-7.3443,5.7862,26.1817,255,255,255
45250,-7.522,5.7528,26.1778,255,255,255
45500,-7.759,5.745,26.3345,255,255,255
45750,-8.1281,5.821,26.6431,255,255,255
46000,-8.6837,6.0115,27.044,255,255,255
46250,-9.3687,6.2805,27.5102,255,255,255
46500,-10.1243,6.5909,28.0152,255,255,255
46750,-10.8916,6.9058,28.5329,255,255,255
47000,-11.6115,7.1882,29.037,255,255,255
47250,-12.2253,7.401,29.5013,255,255,255
47500,-12.674,7.5072,29.8995,255,255,255
47750,-12.9281,7.4884,30.2197,255,255,255
48000,-13.0504,7.3849,30.4901,255,255,255
48250,-13.1034,7.2368,30.7339,255,255,255
48500,-13.1488,7.0842,30.9743,255,255,255
48750,-13.2198,6.9489,31.2236,255,255,255
49000,-13.2911,6.8151,31.4719,255,255,255
49250,-13.3618,6.6826,31.7179,255,255,255
49500,-13.4316,6.5517,31.9611,255,255,255
49750,-13.5004,6.4227,32.2007,255,255,255
50000,-13.5678,6.296,32.436,255,255,255
50250,-13.6338,6.172,32.6662,255,255,255
50500,-13.6982,6.0509,32.8909,255,255,255
50750,-13.7609,5.9331,33.1094,255,255,255
51000,-13.8216,5.819,33.3209,255,255,255
51250,-13.8802,5.709,33.5249,255,255,255
51500,-13.9364,5.6034,33.7208,255,255,255
51750,-13.9901,5.5025,33.9077,255,255,255
52000,-14.041,5.4068,34.0851,255,255,255
52250,-14.0891,5.3165,34.2524,255,255,255
52500,-14.134,5.2321,34.4088,255,255,255
52750,-14.1757,5.1538,34.5538,255,255,255
53000,-14.2138,5.0822,34.6866,255,255,255
53250,-14.2483,5.0174,34.8065,255,255,255
53500,-14.279,4.9598,34.9131,255,255,255
53750,-14.3055,4.9099,35.0055,255,255,255
54000,-14.3279,4.868,35.0831,255,255,255
54250,-14.3458,4.8344,35.1453,255,255,255
54500,-14.359,4.8095,35.1914,255,255,255
54750,-14.3675,4.7936,35.2208,255,255,255
55000,-14.3709,4.7871,35.2327,255,255,255
55250,-14.371,4.787,35.233,255,255,255
55500,-14.371,4.787,35.233,255,255,255
55750,-14.371,4.787,35.233,255,255,255
56000,-14.371,4.787,35.233,255,255,255
56250,-14.371,4.787,35.233,255,255,255
56500,-14.371,4.787,35.233,255,255,255
56750,-14.371,4.787,35.233,255,255,255
57000,-14.371,4.787,35.233,255,255,255
57250,-14.371,4.787,35.233,255,255,255
57500,-14.371,4.787,35.233,255,255,255
57750,-14.371,4.787,35.233,255,255,255
58000,-14.371,4.787,35.233,255,255,255
58250,-14.371,4.787,35.233,255,255,255
58500,-14.371,4.787,35.233,255,255,255
58750,-14.371,4.787,35.233,255,255,255
59000,-14.371,4.787,35.233,255,255,255
59250,-14.3741,4.7737,35.2313,255,255,255
59500,-14.3857,4.7249,35.2252,255,255,255
59750,-14.4048,4.6438,35.2151,255,255,255
60000,-14.4306,4.5344,35.2015,255,255,255
60250,-14.4621,4.4008,35.1848,255,255,255
60500,-14.4984,4.2467,35.1656,255,255,255
60750,-14.5386,4.0763,35.1443,255,255,255
61000,-14.5818,3.8933,35.1215,255,255,255
61250,-14.6269,3.7018,35.0976,255,255,255
61500,-14.6732,3.5056,35.0731,255,255,255
61750,-14.7196,3.3088,35.0486,255,255,255
62000,-14.7652,3.1153,35.0244,255,255,255
62250,-14.8092,2.929,35.0012,255,255,255
62500,-14.8505,2.7539,34.9793,255,255,255
62750,-14.8882,2.5939,34.9594,255,255,255
63000,-14.9214,2.4529,34.9418,255,255,255
63250,-14.9493,2.335,34.9271,255,255,255
63500,-14.9707,2.244,34.9157,255,255,255
63750,-14.9849,2.1839,34.9082,255,255,255
64000,-14.9909,2.1586,34.9051,255,255,255
64250,-14.991,2.158,34.905,255,255,255
64500,-14.991,2.158,34.905,255,255,255
64750,-14.991,2.158,34.905,255,255,255
65000,-14.991,2.158,34.905,255,255,255
65250,-14.991,2.158,34.905,255,255,255
65500,-14.991,2.158,34.905,255,255,255
65750,-14.991,2.158,34.905,255,255,255
66000,-14.991,2.158,34.905,255,255,255
66250,-14.991,2.158,34.905,255,255,255
66500,-14.991,2.158,34.905,255,255,255
66750,-14.991,2.158,34.905,255,255,255
67000,-14.991,2.158,34.905,255,255,255
67250,-14.991,2.158,34.905,255,255,255
67500,-14.991,2.158,34.905,255,255,255
67750,-14.991,2.158,34.905,255,255,255
68000,-14.991,2.158,34.905,255,255,255
68250,-14.991,2.158,34.905,255,255,255
68500,-14.991,2.158,34.905,255,255,255
68750,-14.991,2.158,34.905,255,255,255
69000,-14.991,2.158,34.905,255,255,255
69250,-14.991,2.158,34.905,255,255,255
69500,-14.991,2.158,34.905,255,255,255
69750,-14.991,2.158,34.905,255,255,255
70000,-14.991,2.158,34.905,255,255,255
70250,-14.991,2.158,34.905,255,255,255
70500,-14.991,2.158,34.905,255,255,255
70750,-14.991,2.158,34.905,255,255,255
71000,-14.991,2.158,34.905,255,255,255
71250,-14.991,2.158,34.905,255,255,255
71500,-14.991,2.158,34.905,255,255,255
71750,-14.991,2.158,34.905,255,255,255
72000,-14.991,2.158,34.905,255,255,255
72250,-14.991,2.158,34.905,255,255,255
72500,-14.991,2.158,34.905,255,255,255
72750,-14.991,2.158,34.905,255,255,255
73000,-14.991,2.158,34.905,255,255,255
73250,-14.991,2.158,34.905,255,255,255
73500,-14.991,2.158,34.905,255,255,255
73750,-14.991,2.158,34.905,255,255,255
74000,-14.991,2.158,34.905,255,255,255
74250,-14.991,2.158,34.905,255,255,255
74500,-14.991,2.158,34.905,255,255,255
74750,-14.991,2.158,34.905,255,255,255
75000,-14.991,2.158,34.905,255,255,255
75250,-14.991,2.158,34.905,255,255,255
75500,-14.991,2.158,34.905,255,255,255
75750,-14.991,2.158,34.905,255,255,255
76000,-14.991,2.158,34.905,255,255,255
76250,-14.991,2.158,34.905,255,255,255
76500,-14.9881,2.1591,34.8955,255,255,255
76750,-14.9772,2.1632,34.8592,255,255,255
77000,-14.9583,2.1704,34.7965,255,255,255
77250,-14.9317,2.1805,34.7081,255,255,255
77500,-14.8975,2.1934,34.5949,255,255,255
77750,-14.8562,2.2091,34.4576,255,255,255
78000,-14.8077,2.2275,34.2969,255,255,255
78250,-14.7525,2.2484,34.1136,255,255,255
78500,-14.6907,2.2718,33.9085,255,255,255
78750,-14.6225,2.2977,33.6823,255,255,255
79000,-14.5482,2.3258,33.4357,255,255,255
79250,-14.4681,2.3562,33.1696,255,255,255
79500,-14.3822,2.3888,32.8846,255,255,255
79750,-14.2909,2.4234,32.5816,255,255,255
80000,-14.1944,2.4599,32.2613,255,255,255
80250,-14.093,2.4984,31.9244,255,255,255
80500,-13.9867,2.5387,31.5718,255,255,255
80750,-13.876,2.5807,31.2041,255,255,255
81000,-13.761,2.6243,30.8221,255,255,255
81250,-13.6419,2.6694,30.4266,255,255,255
81500,-13.519,2.716,30.0184,255,255,255
81750,-13.3924,2.764,29.5982,255,255,255
82000,-13.2625,2.8133,29.1667,255,255,255
82250,-13.1295,2.8637,28.7247,255,255,255
82500,-12.9935,2.9153,28.273,255,255,255
82750,-12.8548,2.9679,27.8123,255,255,255
83000,-12.7137,3.0214,27.3434,255,255,255
83250,-12.5703,3.0758,26.8671,255,255,255
83500,-12.425,3.1309,26.384,255,255,255
83750,-12.2779,3.1867,25.895,255,255,255
84000,-12.1292,3.2431,25.4009,255,255,255
84250,-11.9792,3.3,24.9022,255,255,255
84500,-11.8281,3.3574,24.4,255,255,255
84750,-11.6762,3.415,23.8948,255,255,255
85000,-11.5236,3.4729,23.3874,255,255,255
85250,-11.3706,3.5309,22.8787,255,255,255
85500,-11.2175,3.5891,22.3693,255,255,255
85750,-11.0644,3.6472,21.86,255,255,255
86000,-10.9116,3.7051,21.3516,255,255,255
86250,-10.7593,3.763,20.8448,255,255,255
86500,-10.6078,3.8205,20.3404,255,255,255
86750,-10.4572,3.8776,19.8391,255,255,255
87000,-10.3079,3.9344,19.3418,255,255,255
87250,-10.16,3.9905,18.8491,255,255,255
87500,-10.0137,4.0461,18.3618,255,255,255
87750,-9.8693,4.1009,17.8807,255,255,255
88000,-9.7271,4.155,17.4066,255,255,255
88250,-9.5871,4.2081,16.9401,255,255,255
88500,-9.4498,4.2603,16.4821,255,255,255
88750,-9.3154,4.3114,16.0337,255,255,255
89000,-9.1843,4.3612,15.5967,255,255,255
89250,-9.0567,4.4097,15.1715,255,255,255
89500,-8.9328,4.4567,14.7588,255,255,255
89750,-8.8128,4.5023,14.3592,255,255,255
90000,-8.6968,4.5463,13.9732,255,255,255
90250,-8.585,4.5888,13.6014,255,255,255
90500,-8.4777,4.6295,13.2443,255,255,255
90750,-8.3749,4.6685,12.9027,255,255,255
91000,-8.2769,4.7056,12.577,255,255,255
91250,-8.1838,4.7409,12.2678,255,255,255
91500,-8.0959,4.7743,11.9758,255,255,255
91750,-8.0132,4.8056,11.7014,255,255,255
92000,-7.9361,4.8349,11.4453,255,255,255
92250,-7.8645,4.862,11.2081,255,255,255
92500,-7.7989,4.8868,10.9903,255,255,255
92750,-7.7392,4.9094,10.7925,255,255,255
93000,-7.6858,4.9297,10.6153,255,255,255
93250,-7.6387,4.9475,10.4593,255,255,255
93500,-7.5982,4.9628,10.325,255,255,255
93750,-7.5644,4.9756,10.2131,255,255,255
94000,-7.5375,4.9858,10.1241,255,255,255
94250,-7.5177,4.9933,10.0586,255,255,255
94500,-7.5052,4.998,10.0171,255,255,255
94750,-7.5001,5,10.0004,255,255,255
95000,-7.5,5,10,255,255,255
95250,-7.5,5,10,255,255,255
95500,-7.5,5,10,255,255,255
95750,-7.5,5,10,255,255,255
