Time [msec],x [m],y [m],z [m],Red,Green,Blue
0,-13.5,-4.5,0,255,255,255
250,-13.49,-4.4983,0.0291,255,255,255
500,-13.4526,-4.4919,0.1383,255,255,255
750,-13.389,-4.481,0.3239,255,255,255
1000,-13.301,-4.4659,0.5808,255,255,255
1250,-13.1902,-4.4469,0.9042,255,255,255
1500,-13.0583,-4.4242,1.2891,255,255,255
1750,-12.9071,-4.3983,1.7304,255,255,255
2000,-12.7382,-4.3693,2.2233,255,255,255
2250,-12.5533,-4.3375,2.7627,255,255,255
2500,-12.3542,-4.3033,3.3437,255,255,255
2750,-12.1425,-4.2668,3.9614,255,255,255
3000,-11.92,-4.2285,4.6107,255,255,255
3250,-11.6883,-4.1886,5.2868,255,255,255
3500,-11.4492,-4.1474,5.9846,255,255,255
3750,-11.2043,-4.1051,6.6991,255,255,255
4000,-10.9553,-4.0621,7.4255,255,255,255
4250,-10.704,-4.0186,8.1587,255,255,255
4500,-10.452,-3.975,8.8937,255,255,255
4750,-10.2011,-3.9315,9.6257,255,255,255
5000,-9.9529,-3.8884,10.3497,255,255,255
5250,-9.7091,-3.846,11.0606,255,255,255
5500,-9.4715,-3.8046,11.7535,255,255,255
5750,-9.2418,-3.7644,12.4235,255,255,255
6000,-9.0215,-3.7259,13.0656,255,255,255
6250,-8.8126,-3.6892,13.6747,255,255,255
6500,-8.6165,-3.6546,14.2461,255,255,255
6750,-8.431,-3.622,14.787,255,255,255
7000,-8.2491,-3.5909,15.3182,255,255,255
7250,-8.0707,-3.5613,15.8399,255,255,255
7500,-7.8959,-3.5331,16.3521,255,255,255
7750,-7.7247,-3.5064,16.8544,255,255,255
8000,-7.5572,-3.4813,17.3469,255,255,255
8250,-7.3935,-3.4577,17.8292,255,255,255
8500,-7.2336,-3.4357,18.3014,255,255,255
8750,-7.0775,-3.4153,18.7631,255,255,255
9000,-6.9253,-3.3965,19.2142,255,255,255
9250,-6.7771,-3.3795,19.6546,255,255,255
9500,-6.633,-3.3641,20.0841,255,255,255
9750,-6.4929,-3.3504,20.5025,255,255,255
10000,-6.357,-3.3384,20.9097,255,255,255
10250,-6.2252,-3.3282,21.3055,255,255,255
10500,-6.0978,-3.3199,21.6898,255,255,255
10750,-5.9747,-3.3133,22.0623,255,255,255
11000,-5.8559,-3.3086,22.423,255,255,255
11250,-5.7416,-3.3057,22.7716,255,255,255
11500,-5.6317,-3.3048,23.1081,255,255,255
11750,-5.5264,-3.3058,23.4321,255,255,255
12000,-5.4258,-3.3087,23.7437,255,255,255
12250,-5.3297,-3.3136,24.0426,255,255,255
12500,-5.2384,-3.3205,24.3286,255,255,255
12750,-5.1519,-3.3295,24.6016,255,255,255
13000,-5.0702,-3.3405,24.8614,255,255,255
13250,-4.9934,-3.3536,25.1079,255,255,255
13500,-4.9215,-3.3688,25.3411,255,255,255
13750,-4.8544,-3.386,25.5616,255,255,255
14000,-4.7918,-3.4052,25.7697,255,255,255
14250,-4.7338,-3.4263,25.9658,255,255,255
14500,-4.68,-3.4492,26.1503,255,255,255
14750,-4.6304,-3.4739,26.3236,255,255,255
15000,-4.5849,-3.5003,26.486,255,255,255
15250,-4.5433,-3.5283,26.6379,255,255,255
15500,-4.5055,-3.558,26.7796,255,255,255
15750,-4.4712,-3.5891,26.9117,255,255,255
16000,-4.4405,-3.6217,27.0343,255,255,255
16250,-4.4131,-3.6557,27.148,255,255,255
16500,-4.3889,-3.691,27.253,255,255,255
16750,-4.3677,-3.7276,27.3497,255,255,255
17000,-4.3495,-3.7653,27.4386,255,255,255
17250,-4.334,-3.8042,27.52,255,255,255
17500,-4.3212,-3.8442,27.5942,255,255,255
17750,-4.3108,-3.8851,27.6617,255,255,255
18000,-4.3029,-3.927,27.7227,255,255,255
18250,-4.2971,-3.9698,27.7778,255,255,255
18500,-4.2934,-4.0134,27.8272,255,255,255
18750,-4.2916,-4.0577,27.8714,255,255,255
19000,-4.2917,-4.1027,27.9106,255,255,255
19250,-4.2933,-4.1483,27.9453,255,255,255
19500,-4.2965,-4.1944,27.9759,255,255,255
19750,-4.3011,-4.241,28.0027,255,255,255
20000,-4.3068,-4.2881,28.0261,255,255,255
20250,-4.3137,-4.3355,28.0464,255,255,255
20500,-4.3215,-4.3832,28.0641,255,255,255
20750,-4.3301,-4.4311,28.0795,255,255,255
21000,-4.3394,-4.4792,28.093,255,255,255
21250,-4.3492,-4.5274,28.105,255,255,255
21500,-4.3593,-4.5756,28.1158,255,255,255
21750,-4.3697,-4.6238,28.1258,255,255,255
22000,-4.3802,-4.6719,28.1354,255,255,255
22250,-4.3907,-4.72,28.1449,255,255,255
22500,-4.4009,-4.7682,28.1545,255,255,255
22750,-4.4109,-4.8161,28.164,255,255,255
23000,-4.4208,-4.8633,28.1736,255,255,255
23250,-4.4305,-4.9096,28.1833,255,255,255
23500,-4.4401,-4.9546,28.1929,255,255,255
23750,-4.4496,-4.998,28.2026,255,255,255
24000,-4.459,-5.0393,28.2122,255,255,255
24250,-4.4683,-5.0783,28.2219,255,255,255
24500,-4.4777,-5.1146,28.2315,255,255,255
24750,-4.487,-5.1478,28.2411,255,255,255
25000,-4.4963,-5.1777,28.2507,255,255,255
25250,-4.5056,-5.2038,28.2603,255,255,255
25500,-4.515,-5.2259,28.2699,255,255,255
25750,-4.5244,-5.2435,28.2794,255,255,255
26000,-4.5339,-5.2568,28.2889,255,255,255
26250,-4.5433,-5.2666,28.2984,255,255,255
26500,-4.5526,-5.2731,28.3079,255,255,255
26750,-4.5618,-5.2768,28.3174,255,255,255
27000,-4.571,-5.2779,28.327,255,255,255
27250,-4.5802,-5.2767,28.3365,255,255,255
27500,-4.5893,-5.2735,28.3461,255,255,255
27750,-4.5984,-5.2686,28.3557,255,255,255
28000,-4.6075,-5.2623,28.3653,255,255,255
28250,-4.6166,-5.2549,28.3749,255,255,255
28500,-4.6257,-5.2468,28.3846,255,255,255
28750,-4.6348,-5.2382,28.3943,255,255,255
29000,-4.6439,-5.2294,28.404,255,255,255
29250,-4.6531,-5.2208,28.4138,255,255,255
29500,-4.6623,-5.2126,28.4236,255,255,255
29750,-4.6716,-5.2052,28.4334,255,255,255
30000,-4.681,-5.1988,28.4434,255,255,255
30250,-4.6904,-5.1937,28.4533,255,255,255
30500,-4.6999,-5.1904,28.4634,255,255,255
30750,-4.7094,-5.1891,28.4739,255,255,255
31000,-4.7188,-5.19,28.4847,255,255,255
31250,-4.7282,-5.1931,28.4957,255,255,255
31500,-4.7376,-5.1986,28.5068,255,255,255
31750,-4.747,-5.2064,28.5181,255,255,255
32000,-4.7564,-5.2166,28.5295,255,255,255
32250,-4.7657,-5.2294,28.5408,255,255,255
32500,-4.7751,-5.2448,28.5522,255,255,255
32750,-4.7844,-5.2628,28.5634,255,255,255
33000,-4.7936,-5.2837,28.5745,255,255,255
33250,-4.8029,-5.3073,28.5853,255,255,255
33500,-4.8121,-5.3339,28.5959,255,255,255
33750,-4.8213,-5.3634,28.6062,255,255,255
34000,-4.8305,-5.3961,28.6161,255,255,255
34250,-4.8397,-5.4318,28.6256,255,255,255
34500,-4.8489,-5.4708,28.6346,255,255,255
34750,-4.858,-5.513,28.6431,255,255,255
35000,-4.8671,-5.5587,28.6509,255,255,255
35250,-4.8762,-5.6077,28.6581,255,255,255
35500,-4.8853,-5.6603,28.6647,255,255,255
35750,-4.8944,-5.7165,28.6704,255,255,255
36000,-4.9034,-5.7763,28.6753,255,255,255
36250,-4.9125,-5.8399,28.6794,255,255,255
36500,-4.9215,-5.9073,28.6826,255,255,255
36750,-4.9305,-5.9782,28.6846,255,255,255
37000,-4.9395,-6.0516,28.6852,255,255,255
37250,-4.9486,-6.1273,28.6846,255,255,255
37500,-4.9576,-6.2053,28.6828,255,255,255
37750,-4.9667,-6.2852,28.6801,255,255,255
38000,-4.9758,-6.367,28.6764,255,255,255
38250,-4.9849,-6.4504,28.6719,255,255,255
38500,-4.994,-6.5352,28.6667,255,255,255
38750,-5.0031,-6.6213,28.6611,255,255,255
39000,-5.0123,-6.7085,28.6549,255,255,255
39250,-5.0214,-6.7966,28.6485,255,255,255
39500,-5.0306,-6.8855,28.6419,255,255,255
39750,-5.0398,-6.9749,28.6352,255,255,255
40000,-5.049,-7.0647,28.6285,255,255,255
40250,-5.0583,-7.1546,28.622,255,255,255
40500,-5.0675,-7.2446,28.6158,255,255,255
40750,-5.0768,-7.3344,28.61,255,255,255
41000,-5.0861,-7.4238,28.6047,255,255,255
41250,-5.0954,-7.5128,28.6,255,255,255
41500,-5.1047,-7.601,28.5961,255,255,255
41750,-5.114,-7.6883,28.593,255,255,255
42000,-5.1234,-7.7745,28.591,255,255,255
42250,-5.1328,-7.8595,28.5901,255,255,255
42500,-5.1422,-7.943,28.5904,255,255,255
42750,-5.1516,-8.0249,28.592,255,255,255
43000,-5.161,-8.1051,28.5951,255,255,255
43250,-5.1704,-8.1832,28.5998,255,255,255
43500,-5.1799,-8.2592,28.6062,255,255,255
43750,-5.1894,-8.3329,28.6144,255,255,255
44000,-5.1991,-8.404,28.625,255,255,255
44250,-5.2093,-8.4725,28.6384,255,255,255
44500,-5.2199,-8.5385,28.6544,255,255,255
44750,-5.2309,-8.6018,28.6729,255,255,255
45000,-5.2423,-8.6626,28.6936,255,255,255
45250,-5.2539,-8.7208,28.7162,255,255,255
45500,-5.2657,-8.7764,28.7405,255,255,255
45750,-5.2776,-8.8295,28.7663,255,255,255
46000,-5.2897,-8.8801,28.7934,255,255,255
46250,-5.3017,-8.9281,28.8215,255,255,255
46500,-5.3137,-8.9736,28.8503,255,255,255
46750,-5.3256,-9.0166,28.8797,255,255,255
47000,-5.3374,-9.057,28.9094,255,255,255
47250,-5.3489,-9.095,28.9391,255,255,255
47500,-5.3601,-9.1305,28.9687,255,255,255
47750,-5.371,-9.1635,28.9979,255,255,255
48000,-5.3815,-9.194,29.0264,255,255,255
48250,-5.3915,-9.2221,29.0541,255,255,255
48500,-5.401,-9.2477,29.0806,255,255,255
48750,-5.4098,-9.2709,29.1058,255,255,255
49000,-5.4181,-9.2917,29.1294,255,255,255
49250,-5.4256,-9.31,29.1512,255,255,255
49500,-5.4323,-9.3259,29.171,255,255,255
49750,-5.4382,-9.3394,29.1884,255,255,255
50000,-5.4432,-9.3504,29.2033,255,255,255
50250,-5.4472,-9.3591,29.2154,255,255,255
50500,-5.4503,-9.3655,29.2246,255,255,255
50750,-5.4522,-9.3694,29.2305,255,255,255
51000,-5.453,-9.371,29.2329,255,255,255
51250,-5.453,-9.371,29.233,255,255,255
51500,-5.453,-9.371,29.233,255,255,255
51750,-5.453,-9.371,29.233,255,255,255
52000,-5.453,-9.371,29.233,255,255,255
52250,-5.453,-9.371,29.233,255,255,255
52500,-5.453,-9.371,29.233,255,255,255
52750,-5.453,-9.371,29.233,255,255,255
53000,-5.453,-9.371,29.233,255,255,255
53250,-5.453,-9.371,29.233,255,255,255
53500,-5.453,-9.371,29.233,255,255,255
53750,-5.453,-9.371,29.233,255,255,255
54000,-5.453,-9.371,29.233,255,255,255
54250,-5.4492,-9.3733,29.169,255,255,255
54500,-5.4405,-9.3787,28.9626,255,255,255
54750,-5.4369,-9.381,28.6826,255,255,255
55000,-5.4488,-9.3736,28.4005,255,255,255
55250,-5.4951,-9.3452,28.1627,255,255,255
55500,-5.5954,-9.2842,27.9177,255,255,255
55750,-5.7483,-9.1916,27.6001,255,255,255
56000,-5.9393,-9.0761,27.1924,255,255,255
56250,-6.1426,-8.9532,26.7572,255,255,255
56500,-6.3547,-8.8248,26.3029,255,255,255
56750,-6.5724,-8.693,25.8362,255,255,255
57000,-6.7928,-8.5597,25.364,255,255,255
57250,-7.0128,-8.4266,24.8928,255,255,255
57500,-7.2292,-8.2956,24.4296,255,255,255
57750,-7.4418,-8.1671,23.9749,255,255,255
58000,-7.6543,-8.0386,23.5204,255,255,255
58250,-7.8668,-7.9101,23.0659,255,255,255
58500,-8.0793,-7.7816,22.6114,255,255,255
58750,-8.2918,-7.6531,22.1569,255,255,255
59000,-8.5043,-7.5246,21.7024,255,255,255
59250,-8.7168,-7.3961,21.2479,255,255,255
59500,-8.9293,-7.2676,20.7934,255,255,255
59750,-9.1418,-7.1391,20.3389,255,255,255
60000,-9.3543,-7.0106,19.8844,255,255,255
60250,-9.5668,-6.8821,19.4299,255,255,255
60500,-9.7793,-6.7536,18.9754,255,255,255
60750,-9.9918,-6.6251,18.5209,255,255,255
61000,-10.2043,-6.4966,18.0664,255,255,255
61250,-10.4168,-6.3681,17.6119,255,255,255
61500,-10.6293,-6.2396,17.1574,255,255,255
61750,-10.8418,-6.1111,16.7029,255,255,255
62000,-11.0543,-5.9826,16.2484,255,255,255
62250,-11.2668,-5.8541,15.7939,255,255,255
62500,-11.4754,-5.7251,15.3354,255,255,255
62750,-11.6874,-5.5966,14.8804,255,255,255
63000,-11.8994,-5.4681,14.4254,255,255,255
63250,-12.1114,-5.3396,13.9704,255,255,255
63500,-12.3234,-5.2111,13.5154,255,255,255
63750,-12.5354,-5.0826,13.0604,255,255,255
64000,-12.7542,-4.9514,12.5981,255,255,255
64250,-12.9718,-4.8198,12.1321,255,255,255
64500,-13.1697,-4.7,11.7083,255,255,255
64750,-13.327,-4.6047,11.371,255,255,255
65000,-13.4297,-4.5424,11.1106,255,255,255
65250,-13.4875,-4.5074,10.8509,255,255,255
65500,-13.512,-4.4926,10.5982,255,255,255
65750,-13.5146,-4.4911,10.3608,255,255,255
66000,-13.5068,-4.4958,10.1469,255,255,255
66250,-13.5002,-4.4999,9.9649,255,255,255
66500,-13.5,-4.5,9.8124,255,255,255
66750,-13.5,-4.5,9.6723,255,255,255
67000,-13.5,-4.5,9.5419,255,255,255
67250,-13.5,-4.5,9.4188,255,255,255
67500,-13.5,-4.5,9.3008,255,255,255
67750,-13.5,-4.5,9.1855,255,255,255
68000,-13.5,-4.5,9.0707,255,255,255
68250,-13.5,-4.5,8.9539,255,255,255
68500,-13.5,-4.5,8.8329,255,255,255
68750,-13.5,-4.5,8.708,255,255,255
69000,-13.5,-4.5,8.583,255,255,255
69250,-13.5,-4.5,8.458,255,255,255
69500,-13.5,-4.5,8.333,255,255,255
69750,-13.5,-4.5,8.208,255,255,255
70000,-13.5,-4.5,8.083,255,255,255
70250,-13.5,-4.5,7.958,255,255,255
70500,-13.5,-4.5,7.833,255,255,255
70750,-13.5,-4.5,7.708,255,255,255
71000,-13.5,-4.5,7.583,255,255,255
71250,-13.5,-4.5,7.458,255,255,255
71500,-13.5,-4.5,7.333,255,255,255
71750,-13.5,-4.5,7.208,255,255,255
72000,-13.5,-4.5,7.083,255,255,255
72250,-13.5,-4.5,6.958,255,255,255
72500,-13.5,-4.5,6.833,255,255,255
72750,-13.5,-4.5,6.708,255,255,255
73000,-13.5,-4.5,6.583,255,255,255
73250,-13.5,-4.5,6.458,255,255,255
73500,-13.5,-4.5,6.333,255,255,255
73750,-13.5,-4.5,6.208,255,255,255
74000,-13.5,-4.5,6.083,255,255,255
74250,-13.5,-4.5,5.958,255,255,255
74500,-13.5,-4.5,5.833,255,255,255
74750,-13.5,-4.5,5.708,255,255,255
75000,-13.5,-4.5,5.584,255,255,255
75250,-13.5,-4.5,5.459,255,255,255
75500,-13.5,-4.5,5.334,255,255,255
75750,-13.5,-4.5,5.209,255,255,255
76000,-13.5,-4.5,5.084,255,255,255
76250,-13.5,-4.5,4.959,255,255,255
76500,-13.5,-4.5,4.834,255,255,255
76750,-13.5,-4.5,4.709,255,255,255
77000,-13.5,-4.5,4.584,255,255,255
77250,-13.5,-4.5,4.459,255,255,255
77500,-13.5,-4.5,4.334,255,255,255
77750,-13.5,-4.5,4.209,255,255,255
78000,-13.5,-4.5,4.084,255,255,255
78250,-13.5,-4.5,3.959,255,255,255
78500,-13.5,-4.5,3.834,255,255,255
78750,-13.5,-4.5,3.709,255,255,255
79000,-13.5,-4.5,3.584,255,255,255
79250,-13.5,-4.5,3.459,255,255,255
79500,-13.5,-4.5,3.334,255,255,255
79750,-13.5,-4.5,3.209,255,255,255
80000,-13.5,-4.5,3.084,255,255,255
80250,-13.5,-4.5,2.959,255,255,255
80500,-13.5,-4.5,2.834,255,255,255
80750,-13.5,-4.5,2.709,255,255,255
81000,-13.5,-4.5,2.584,255,255,255
81250,-13.5,-4.5,2.459,255,255,255
81500,-13.5,-4.5,2.334,255,255,255
81750,-13.5,-4.5,2.209,255,255,255
82000,-13.5,-4.5,2.084,255,255,255
82250,-13.5,-4.5,1.959,255,255,255
82500,-13.5,-4.5,1.834,255,255,255
82750,-13.5,-4.5,1.709,255,255,255
83000,-13.5,-4.5,1.584,255,255,255
83250,-13.5,-4.5,1.459,255,255,255
83500,-13.5,-4.5,1.334,255,255,255
83750,-13.5,-4.5,1.209,255,255,255
84000,-13.5,-4.5,1.084,255,255,255
84250,-13.5,-4.5,0.959,255,255,255
84500,-13.5,-4.5,0.834,255,255,255
84750,-13.5,-4.5,0.709,255,255,255
85000,-13.5,-4.5,0.5748,255,255,255
85250,-13.5,-4.5,0.4242,255,255,255
85500,-13.5,-4.5,0.2742,255,255,255
85750,-13.5,-4.5,0.142,255,255,255
86000,-13.5,-4.5,0.0452,255,255,255
86250,-13.5,-4.5,0.001,255,255,255
86500,-13.5,-4.5,0,255,255,255
86750,-13.5,-4.5,0,255,255,255
87000,-13.5,-4.5,0,255,255,255
87250,-13.5,-4.5,0,255,255,255
87500,-13.5,-4.5,0,255,255,255
87750,-13.5,-4.5,0,255,255,255
88000,-13.5,-4.5,0,255,255,255
88250,-13.5,-4.5,0,255,255,255
88500,-13.5,-4.5,0,255,255,255
88750,-13.5,-4.5,0,255,255,255
89000,-13.5,-4.5,0,255,255,255
89250,-13.5,-4.5,0,255,255,255
89500,-13.5,-4.5,0,255,255,255
89750,-13.5,-4.5,0,255,255,255
90000,-13.5,-4.5,0,255,255,255
90250,-13.5,-4.5,0,255,255,255
90500,-13.5,-4.5,0,255,255,255
90750,-13.5,-4.5,0,255,255,255
91000,-13.5,-4.5,0,255,255,255
91250,-13.5,-4.5,0,255,255,255
91500,-13.5,-4.5,0,255,255,255
91750,-13.5,-4.5,0,255,255,255
92000,-13.5,-4.5,0,255,255,255
92250,-13.5,-4.5,0,255,255,255
92500,-13.5,-4.5,0,255,255,255
92750,-13.5,-4.5,0,255,255,255
93000,-13.5,-4.5,0,255,255,255
93250,-13.5,-4.5,0,255,255,255
93500,-13.5,-4.5,0,255,255,255
93750,-13.5,-4.5,0,255,255,255
94000,-13.5,-4.5,0,255,255,255
94250,-13.5,-4.5,0,255,255,255
94500,-13.5,-4.5,0,255,255,255
94750,-13.5,-4.5,0,255,255,255
95000,-13.5,-4.5,0,255,255,255
95250,-13.5,-4.5,0,255,255,255
95500,-13.5,-4.5,0,255,255,255
95750,-13.5,-4.5,0,255,255,255
96000,-13.5,-4.5,0,255,255,255
96250,-13.5,-4.5,0,255,255,255
96500,-13.5,-4.5,0,255,255,255
96750,-13.5,-4.5,0,255,255,255
97000,-13.5,-4.5,0,255,255,255
97250,-13.5,-4.5,0,255,255,255
97500,-13.5,-4.5,0,255,255,255
97750,-13.5,-4.5,0,255,255,255
98000,-13.5,-4.5,0,255,255,255
98250,-13.5,-4.5,0,255,255,255
98500,-13.5,-4.5,0,255,255,255
98750,-13.5,-4.5,0,255,255,255
99000,-13.5,-4.5,0,255,255,255
99250,-13.5,-4.5,0,255,255,255
99500,-13.5,-4.5,0,255,255,255
99750,-13.5,-4.5,0,255,255,255
100000,-13.5,-4.5,0,255,255,255
100250,-13.5,-4.5,0,255,255,255
100500,-13.5,-4.5,0,255,255,255
100750,-13.5,-4.5,0,255,255,255
101000,-13.5,-4.5,0,255,255,255
101250,-13.5,-4.5,0,255,255,255
101500,-13.5,-4.5,0,255,255,255
101750,-13.5,-4.5,0,255,255,255
102000,-13.5,-4.5,0,255,255,255
102250,-13.5,-4.5,0,255,255,255
102500,-13.5,-4.5,0,255,255,255
102750,-13.5,-4.5,0,255,255,255
103000,-13.5,-4.5,0,255,255,255
103250,-13.5,-4.5,0,255,255,255
103500,-13.5,-4.5,0,255,255,255
103750,-13.5,-4.5,0,255,255,255
104000,-13.5,-4.5,0,255,255,255
