Time [msec],x [m],y [m],z [m],Red,Green,Blue
0,-10,0,0,255,255,255
250,-9.9974,0,0.0369,255,255,255
500,-9.9897,0.0002,0.1455,255,255,255
750,-9.9771,0.0003,0.3226,255,255,255
1000,-9.9599,0.0006,0.565,255,255,255
1250,-9.9384,0.0009,0.8694,255,255,255
1500,-9.9127,0.0012,1.2326,255,255,255
1750,-9.883,0.0016,1.6515,255,255,255
2000,-9.8497,0.002,2.1229,255,255,255
2250,-9.813,0.0025,2.6434,255,255,255
2500,-9.773,0.003,3.21,255,255,255
2750,-9.7301,0.0035,3.8181,255,255,255
3000,-9.6846,0.0041,4.4627,255,255,255
3250,-9.6369,0.0046,5.1399,255,255,255
3500,-9.5871,0.0052,5.8456,255,255,255
3750,-9.5356,0.0059,6.5759,255,255,255
4000,-9.4826,0.0065,7.3267,255,255,255
4250,-9.4284,0.0071,8.0942,255,255,255
4500,-9.3734,0.0078,8.8743,255,255,255
4750,-9.3178,0.0085,9.663,255,255,255
5000,-9.2618,0.0092,10.4563,255,255,255
5250,-9.2057,0.0098,11.2503,255,255,255
5500,-9.15,0.0105,12.041,255,255,255
5750,-9.0947,0.0112,12.8244,255,255,255
6000,-9.0402,0.0119,13.5965,255,255,255
6250,-8.9868,0.0125,14.3533,255,255,255
6500,-8.9348,0.0131,15.0908,255,255,255
6750,-8.8844,0.0138,15.8051,255,255,255
7000,-8.836,0.0144,16.4921,255,255,255
7250,-8.7897,0.0149,17.148,255,255,255
7500,-8.746,0.0155,17.7686,255,255,255
7750,-8.705,0.016,18.35,255,255,255
8000,-8.6674,0.0165,18.8832,255,255,255
8250,-8.6337,0.0168,19.3614,255,255,255
8500,-8.604,0.0172,19.7846,255,255,255
8750,-8.5781,0.0174,20.1522,255,255,255
9000,-8.5561,0.0176,20.4641,255,255,255
9250,-8.5381,0.0178,20.72,255,255,255
9500,-8.5241,0.0179,20.9195,255,255,255
9750,-8.5141,0.018,21.0624,255,255,255
10000,-8.508,0.018,21.1483,255,255,255
10250,-8.506,0.018,21.177,255,255,255
10500,-8.506,0.018,21.177,255,255,255
10750,-8.506,0.018,21.177,255,255,255
11000,-8.506,0.018,21.177,255,255,255
11250,-8.506,0.018,21.177,255,255,255
11500,-8.506,0.018,21.177,255,255,255
11750,-8.506,0.018,21.177,255,255,255
12000,-8.506,0.018,21.177,255,255,255
12250,-8.506,0.018,21.177,255,255,255
12500,-8.506,0.018,21.177,255,255,255
12750,-8.506,0.018,21.177,255,255,255
13000,-8.506,0.018,21.177,255,255,255
13250,-8.506,0.018,21.177,255,255,255
13500,-8.506,0.018,21.177,255,255,255
13750,-8.506,0.018,21.177,255,255,255
14000,-8.506,0.018,21.177,255,255,255
14250,-8.506,0.018,21.177,255,255,255
14500,-8.506,0.018,21.177,255,255,255
14750,-8.506,0.018,21.177,255,255,255
15000,-8.506,0.018,21.177,255,255,255
15250,-8.506,0.018,21.177,255,255,255
15500,-8.506,0.018,21.177,255,255,255
15750,-8.506,0.018,21.177,255,255,255
16000,-8.506,0.018,21.177,255,255,255
16250,-8.506,0.018,21.177,255,255,255
16500,-8.506,0.018,21.177,255,255,255
16750,-8.506,0.018,21.177,255,255,255
17000,-8.506,0.018,21.177,255,255,255
17250,-8.506,0.018,21.177,255,255,255
17500,-8.506,0.018,21.177,255,255,255
17750,-8.506,0.018,21.177,255,255,255
18000,-8.506,0.018,21.177,255,255,255
18250,-8.506,0.018,21.177,255,255,255
18500,-8.506,0.018,21.177,255,255,255
18750,-8.506,0.018,21.177,255,255,255
19000,-8.506,0.018,21.177,255,255,255
19250,-8.506,0.018,21.177,255,255,255
19500,-8.506,0.018,21.177,255,255,255
19750,-8.506,0.018,21.177,255,255,255
20000,-8.506,0.018,21.177,255,255,255
20250,-8.506,0.018,21.177,255,255,255
20500,-8.506,0.018,21.177,255,255,255
20750,-8.506,0.018,21.177,255,255,255
21000,-8.506,0.018,21.177,255,255,255
21250,-8.506,0.018,21.177,255,255,255
21500,-8.506,0.018,21.177,255,255,255
21750,-8.506,0.018,21.177,255,255,255
22000,-8.506,0.018,21.177,255,255,255
22250,-8.506,0.018,21.177,255,255,255
22500,-8.506,0.018,21.177,255,255,255
22750,-8.506,0.018,21.177,255,255,255
23000,-8.506,0.018,21.177,255,255,255
23250,-8.506,0.018,21.177,255,255,255
23500,-8.506,0.018,21.177,255,255,255
23750,-8.506,0.018,21.177,255,255,255
24000,-8.506,0.018,21.177,255,255,255
24250,-8.506,0.018,21.177,255,255,255
24500,-8.506,0.018,21.177,255,255,255
24750,-8.506,0.018,21.177,255,255,255
25000,-8.506,0.018,21.177,255,255,255
25250,-8.506,0.018,21.177,255,255,255
25500,-8.506,0.018,21.177,255,255,255
25750,-8.506,0.018,21.177,255,255,255
26000,-8.506,0.018,21.177,255,255,255
26250,-8.506,0.018,21.177,255,255,255
26500,-8.506,0.018,21.177,255,255,255
26750,-8.506,0.018,21.177,255,255,255
27000,-8.506,0.018,21.177,255,255,255
27250,-8.506,0.018,21.177,255,255,255
27500,-8.506,0.018,21.177,255,255,255
27750,-8.506,0.018,21.177,255,255,255
28000,-8.506,0.018,21.177,255,255,255
28250,-8.506,0.018,21.177,255,255,255
28500,-8.506,0.018,21.177,255,255,255
28750,-8.506,0.018,21.177,255,255,255
29000,-8.506,0.018,21.177,255,255,255
29250,-8.506,0.018,21.177,255,255,255
29500,-8.506,0.018,21.177,255,255,255
29750,-8.506,0.018,21.177,255,255,255
30000,-8.506,0.018,21.177,255,255,255
30250,-8.506,0.018,21.177,255,255,255
30500,-8.506,0.018,21.177,255,255,255
30750,-8.506,0.018,21.177,255,255,255
31000,-8.506,0.018,21.177,255,255,255
31250,-8.506,0.018,21.177,255,255,255
31500,-8.506,0.018,21.177,255,255,255
31750,-8.506,0.018,21.177,255,255,255
32000,-8.506,0.018,21.177,255,255,255
32250,-8.506,0.018,21.177,255,255,255
32500,-8.506,0.018,21.177,255,255,255
32750,-8.506,0.018,21.177,255,255,255
33000,-8.506,0.018,21.177,255,255,255
33250,-8.506,0.018,21.177,255,255,255
33500,-8.506,0.018,21.177,255,255,255
33750,-8.506,0.018,21.177,255,255,255
34000,-8.506,0.018,21.177,255,255,255
34250,-8.506,0.018,21.177,255,255,255
34500,-8.506,0.018,21.177,255,255,255
34750,-8.506,0.018,21.177,255,255,255
35000,-8.506,0.018,21.177,255,255,255
35250,-8.506,0.018,21.177,255,255,255
35500,-8.506,0.018,21.177,255,255,255
35750,-8.506,0.018,21.177,255,255,255
36000,-8.506,0.018,21.177,255,255,255
36250,-8.506,0.018,21.177,255,255,255
36500,-8.506,0.018,21.177,255,255,255
36750,-8.506,0.018,21.177,255,255,255
37000,-8.506,0.018,21.177,255,255,255
37250,-8.506,0.018,21.177,255,255,255
37500,-8.506,0.018,21.177,255,255,255
37750,-8.506,0.018,21.177,255,255,255
38000,-8.506,0.018,21.177,255,255,255
38250,-8.506,0.018,21.177,255,255,255
38500,-8.506,0.018,21.177,255,255,255
38750,-8.506,0.018,21.177,255,255,255
39000,-8.506,0.018,21.177,255,255,255
39250,-8.506,0.018,21.177,255,255,255
39500,-8.506,0.018,21.177,255,255,255
39750,-8.506,0.018,21.177,255,255,255
40000,-8.506,0.018,21.177,255,255,255
40250,-8.506,0.0224,21.1774,255,255,255
40500,-8.506,0.0354,21.1785,255,255,255
40750,-8.506,0.0569,21.18,255,255,255
41000,-8.506,0.0865,21.1817,255,255,255
41250,-8.506,0.1242,21.1834,255,255,255
41500,-8.506,0.1697,21.1848,255,255,255
41750,-8.506,0.2227,21.1857,255,255,255
42000,-8.506,0.2831,21.1859,255,255,255
42250,-8.506,0.3508,21.1852,255,255,255
42500,-8.506,0.4253,21.1832,255,255,255
42750,-8.506,0.5067,21.1799,255,255,255
43000,-8.506,0.5945,21.1749,255,255,255
43250,-8.506,0.6887,21.168,255,255,255
43500,-8.506,0.7891,21.159,255,255,255
43750,-8.506,0.8953,21.1476,255,255,255
44000,-8.506,1.0073,21.1337,255,255,255
44250,-8.506,1.1247,21.1169,255,255,255
44500,-8.506,1.2475,21.0972,255,255,255
44750,-8.506,1.3753,21.0741,255,255,255
45000,-8.506,1.508,21.0475,255,255,255
45250,-8.506,1.6453,21.0172,255,255,255
45500,-8.506,1.7872,20.983,255,255,255
45750,-8.506,1.9332,20.9445,255,255,255
46000,-8.506,2.0833,20.9016,255,255,255
46250,-8.506,2.2372,20.854,255,255,255
46500,-8.506,2.3948,20.8016,255,255,255
46750,-8.506,2.5557,20.744,255,255,255
47000,-8.506,2.7199,20.6811,255,255,255
47250,-8.506,2.887,20.6125,255,255,255
47500,-8.506,3.057,20.5382,255,255,255
47750,-8.506,3.2295,20.4578,255,255,255
48000,-8.506,3.4043,20.3711,255,255,255
48250,-8.506,3.5813,20.2779,255,255,255
48500,-8.506,3.7603,20.1779,255,255,255
48750,-8.506,3.941,20.071,255,255,255
49000,-8.506,4.1222,19.956,255,255,255
49250,-8.506,4.3025,19.8322,255,255,255
49500,-8.506,4.4815,19.6999,255,255,255
49750,-8.506,4.659,19.5592,255,255,255
50000,-8.506,4.8345,19.4104,255,255,255
50250,-8.506,5.0078,19.2539,255,255,255
50500,-8.506,5.1784,19.0897,255,255,255
50750,-8.506,5.346,18.9182,255,255,255
51000,-8.506,5.5103,18.7397,255,255,255
51250,-8.506,5.6709,18.5542,255,255,255
51500,-8.506,5.8275,18.3622,255,255,255
51750,-8.506,5.9797,18.1639,255,255,255
52000,-8.506,6.1272,17.9594,255,255,255
52250,-8.506,6.2696,17.7491,255,255,255
52500,-8.506,6.4066,17.5332,255,255,255
52750,-8.506,6.5378,17.3119,255,255,255
53000,-8.506,6.6629,17.0855,255,255,255
53250,-8.506,6.7815,16.8542,255,255,255
53500,-8.506,6.8932,16.6183,255,255,255
53750,-8.506,6.9978,16.378,255,255,255
54000,-8.506,7.0949,16.1336,255,255,255
54250,-8.506,7.1841,15.8852,255,255,255
54500,-8.506,7.2651,15.6333,255,255,255
54750,-8.506,7.3375,15.3779,255,255,255
55000,-8.506,7.401,15.1194,255,255,255
55250,-8.506,7.4552,14.858,255,255,255
55500,-8.506,7.4998,14.5939,255,255,255
55750,-8.506,7.5344,14.3275,255,255,255
56000,-8.506,7.5587,14.0588,255,255,255
56250,-8.506,7.5724,13.7882,255,255,255
56500,-8.506,7.575,13.516,255,255,255
56750,-8.506,7.5664,13.2439,255,255,255
57000,-8.506,7.5468,12.9739,255,255,255
57250,-8.506,7.5167,12.7061,255,255,255
57500,-8.506,7.4763,12.4408,255,255,255
57750,-8.506,7.426,12.1782,255,255,255
58000,-8.506,7.3662,11.9185,255,255,255
58250,-8.506,7.2972,11.662,255,255,255
58500,-8.506,7.2194,11.409,255,255,255
58750,-8.506,7.1332,11.1595,255,255,255
59000,-8.506,7.0388,10.914,255,255,255
59250,-8.506,6.9367,10.6725,255,255,255
59500,-8.506,6.8273,10.4354,255,255,255
59750,-8.506,6.7108,10.2028,255,255,255
60000,-8.506,6.5876,9.975,255,255,255
60250,-8.506,6.4581,9.7522,255,255,255
60500,-8.506,6.3227,9.5347,255,255,255
60750,-8.506,6.1817,9.3227,255,255,255
61000,-8.506,6.0354,9.1164,255,255,255
61250,-8.506,5.8843,8.9161,255,255,255
61500,-8.506,5.7286,8.7219,255,255,255
61750,-8.506,5.5688,8.5341,255,255,255
62000,-8.506,5.4051,8.353,255,255,255
62250,-8.506,5.238,8.1788,255,255,255
62500,-8.506,5.0679,8.0116,255,255,255
62750,-8.506,4.8949,7.8518,255,255,255
63000,-8.506,4.7196,7.6996,255,255,255
63250,-8.506,4.5423,7.5552,255,255,255
63500,-8.506,4.3633,7.4187,255,255,255
63750,-8.506,4.1831,7.2906,255,255,255
64000,-8.506,4.0018,7.1709,255,255,255
64250,-8.506,3.82,7.06,255,255,255
64500,-8.5061,3.6389,6.9571,255,255,255
64750,-8.5064,3.4596,6.8612,255,255,255
65000,-8.5068,3.2825,6.7722,255,255,255
65250,-8.5075,3.1076,6.6896,255,255,255
65500,-8.5082,2.9353,6.6134,255,255,255
65750,-8.5091,2.7656,6.5432,255,255,255
66000,-8.51,2.599,6.4788,255,255,255
66250,-8.511,2.4354,6.42,255,255,255
66500,-8.5121,2.2753,6.3665,255,255,255
66750,-8.5133,2.1187,6.318,255,255,255
67000,-8.5144,1.9658,6.2743,255,255,255
67250,-8.5156,1.817,6.2352,255,255,255
67500,-8.5167,1.6724,6.2004,255,255,255
67750,-8.5179,1.5322,6.1697,255,255,255
68000,-8.5189,1.3966,6.1427,255,255,255
68250,-8.52,1.2659,6.1194,255,255,255
68500,-8.5209,1.1403,6.0994,255,255,255
68750,-8.5217,1.0198,6.0824,255,255,255
69000,-8.5224,0.9049,6.0683,255,255,255
69250,-8.523,0.7957,6.0567,255,255,255
69500,-8.5234,0.6923,6.0475,255,255,255
69750,-8.5236,0.5951,6.0404,255,255,255
70000,-8.5236,0.5042,6.0351,255,255,255
70250,-8.5234,0.4198,6.0314,255,255,255
70500,-8.523,0.3422,6.029,255,255,255
70750,-8.5224,0.2715,6.0277,255,255,255
71000,-8.5215,0.208,6.0273,255,255,255
71250,-8.5202,0.1519,6.0274,255,255,255
71500,-8.5187,0.1034,6.0279,255,255,255
71750,-8.5169,0.0626,6.0285,255,255,255
72000,-8.5147,0.0299,6.029,255,255,255
72250,-8.5122,0.0054,6.0291,255,255,255
72500,-8.5093,-0.0106,6.0285,255,255,255
72750,-8.506,-0.018,6.027,255,255,255
73000,-8.4943,-0.0208,6.0179,255,255,255
73250,-8.4663,-0.023,5.9956,255,255,255
73500,-8.4216,-0.0249,5.9612,255,255,255
73750,-8.3601,-0.0263,5.9161,255,255,255
74000,-8.2816,-0.0274,5.8616,255,255,255
74250,-8.186,-0.0281,5.7988,255,255,255
74500,-8.073,-0.0285,5.7292,255,255,255
74750,-7.9424,-0.0287,5.6539,255,255,255
75000,-7.7941,-0.0285,5.5742,255,255,255
75250,-7.6279,-0.0282,5.4913,255,255,255
75500,-7.4436,-0.0277,5.4067,255,255,255
75750,-7.241,-0.027,5.3215,255,255,255
76000,-7.0199,-0.0262,5.237,255,255,255
76250,-6.7802,-0.0253,5.1545,255,255,255
76500,-6.5216,-0.0243,5.0752,255,255,255
76750,-6.2439,-0.0233,5.0005,255,255,255
77000,-5.9471,-0.0223,4.9315,255,255,255
77250,-5.6308,-0.0214,4.8697,255,255,255
77500,-5.2949,-0.0205,4.8161,255,255,255
77750,-4.9392,-0.0197,4.7722,255,255,255
78000,-4.5636,-0.019,4.7391,255,255,255
78250,-4.1678,-0.0185,4.7182,255,255,255
78500,-3.7517,-0.0181,4.7108,255,255,255
78750,-3.315,-0.018,4.718,255,255,255
79000,-2.8581,-0.018,4.7453,255,255,255
79250,-2.3827,-0.018,4.7974,255,255,255
79500,-1.8907,-0.018,4.8746,255,255,255
79750,-1.3842,-0.018,4.9772,255,255,255
80000,-0.865,-0.018,5.1054,255,255,255
80250,-0.335,-0.018,5.2595,255,255,255
80500,0.2037,-0.018,5.4398,255,255,255
80750,0.7492,-0.018,5.6465,255,255,255
81000,1.2996,-0.018,5.88,255,255,255
81250,1.8529,-0.018,6.1405,255,255,255
81500,2.4071,-0.018,6.4283,255,255,255
81750,2.9604,-0.018,6.7437,255,255,255
82000,3.5108,-0.018,7.0869,255,255,255
82250,4.0563,-0.018,7.4582,255,255,255
82500,4.595,-0.018,7.8579,255,255,255
82750,5.125,-0.018,8.2863,255,255,255
83000,5.6442,-0.018,8.7437,255,255,255
83250,6.1507,-0.018,9.2302,255,255,255
83500,6.6427,-0.018,9.7463,255,255,255
83750,7.1181,-0.018,10.2921,255,255,255
84000,7.575,-0.018,10.868,255,255,255
84250,8.0081,-0.018,11.4706,255,255,255
84500,8.4137,-0.018,12.0948,255,255,255
84750,8.7918,-0.018,12.7385,255,255,255
85000,9.1429,-0.018,13.3996,255,255,255
85250,9.4672,-0.018,14.0757,255,255,255
85500,9.7648,-0.018,14.7648,255,255,255
85750,10.0361,-0.018,15.4647,255,255,255
86000,10.2813,-0.018,16.1731,255,255,255
86250,10.5007,-0.018,16.8879,255,255,255
86500,10.6944,-0.018,17.6069,255,255,255
86750,10.8628,-0.018,18.3279,255,255,255
87000,11.006,-0.018,19.0488,255,255,255
87250,11.1244,-0.018,19.7673,255,255,255
87500,11.2182,-0.018,20.4813,255,255,255
87750,11.2876,-0.018,21.1886,255,255,255
88000,11.3329,-0.018,21.887,255,255,255
88250,11.3542,-0.018,22.5743,255,255,255
88500,11.352,-0.018,23.2483,255,255,255
88750,11.3264,-0.018,23.9069,255,255,255
89000,11.2776,-0.018,24.5479,255,255,255
89250,11.206,-0.018,25.169,255,255,255
89500,11.1161,-0.018,25.7679,255,255,255
89750,11.0134,-0.018,26.3436,255,255,255
90000,10.8993,-0.018,26.8957,255,255,255
90250,10.7754,-0.018,27.4242,255,255,255
90500,10.6432,-0.018,27.9289,255,255,255
90750,10.504,-0.018,28.4094,255,255,255
91000,10.3594,-0.018,28.8657,255,255,255
91250,10.2109,-0.018,29.2976,255,255,255
91500,10.0599,-0.018,29.7048,255,255,255
91750,9.9079,-0.018,30.0871,255,255,255
92000,9.7565,-0.018,30.4444,255,255,255
92250,9.607,-0.018,30.7765,255,255,255
92500,9.461,-0.018,31.0831,255,255,255
92750,9.3199,-0.018,31.3641,255,255,255
93000,9.1852,-0.018,31.6193,255,255,255
93250,9.0584,-0.018,31.8484,255,255,255
93500,8.941,-0.018,32.0513,255,255,255
93750,8.8345,-0.018,32.2278,255,255,255
94000,8.7403,-0.018,32.3777,255,255,255
94250,8.6599,-0.018,32.5008,255,255,255
94500,8.5948,-0.018,32.5968,255,255,255
94750,8.5464,-0.018,32.6657,255,255,255
95000,8.5164,-0.018,32.7071,255,255,255
95250,8.506,-0.018,32.721,255,255,255
95500,8.506,-0.018,32.721,255,255,255
95750,8.506,-0.018,32.721,255,255,255
96000,8.506,-0.018,32.721,255,255,255
96250,8.506,-0.018,32.721,255,255,255
96500,8.506,-0.018,32.721,255,255,255
96750,8.506,-0.018,32.721,255,255,255
97000,8.506,-0.018,32.721,255,255,255
97250,8.506,-0.018,32.721,255,255,255
97500,8.506,-0.018,32.721,255,255,255
97750,8.506,-0.018,32.721,255,255,255
98000,8.506,-0.018,32.721,255,255,255
98250,8.506,-0.018,32.721,255,255,255
98500,8.506,-0.018,32.721,255,255,255
98750,8.506,-0.018,32.721,255,255,255
99000,8.506,-0.018,32.721,255,255,255
99250,8.506,-0.018,32.721,255,255,255
99500,8.506,-0.018,32.721,255,255,255
99750,8.506,-0.018,32.721,255,255,255
100000,8.506,-0.018,32.721,255,255,255
100250,8.506,-0.018,32.721,255,255,255
100500,8.506,-0.018,32.721,255,255,255
100750,8.506,-0.018,32.721,255,255,255
101000,8.506,-0.018,32.721,255,255,255
101250,8.506,-0.018,32.721,255,255,255
101500,8.506,-0.018,32.721,255,255,255
101750,8.506,-0.018,32.721,255,255,255
102000,8.506,-0.018,32.721,255,255,255
102250,8.506,-0.018,32.721,255,255,255
102500,8.506,-0.018,32.721,255,255,255
102750,8.506,-0.018,32.721,255,255,255
103000,8.506,-0.018,32.721,255,255,255
103250,8.506,-0.018,32.721,255,255,255
103500,8.506,-0.018,32.721,255,255,255
103750,8.506,-0.018,32.721,255,255,255
104000,8.506,-0.018,32.721,255,255,255
104250,8.506,-0.018,32.721,255,255,255
104500,8.506,-0.018,32.721,255,255,255
104750,8.506,-0.018,32.721,255,255,255
105000,8.506,-0.018,32.721,255,255,255
105250,8.506,-0.018,32.721,255,255,255
105500,8.506,-0.018,32.721,255,255,255
105750,8.506,-0.018,32.721,255,255,255
106000,8.506,-0.018,32.721,255,255,255
106250,8.506,-0.018,32.721,255,255,255
106500,8.506,-0.018,32.721,255,255,255
106750,8.506,-0.018,32.721,255,255,255
107000,8.506,-0.018,32.721,255,255,255
107250,8.506,-0.018,32.721,255,255,255
107500,8.506,-0.018,32.721,255,255,255
107750,8.506,-0.018,32.721,255,255,255
108000,8.506,-0.018,32.721,255,255,255
108250,8.506,-0.018,32.721,255,255,255
108500,8.506,-0.018,32.721,255,255,255
108750,8.506,-0.018,32.721,255,255,255
109000,8.506,-0.018,32.721,255,255,255
109250,8.506,-0.018,32.721,255,255,255
109500,8.506,-0.018,32.721,255,255,255
109750,8.506,-0.018,32.721,255,255,255
110000,8.506,-0.018,32.721,255,255,255
110250,8.506,-0.018,32.721,255,255,255
110500,8.506,-0.018,32.721,255,255,255
110750,8.506,-0.018,32.721,255,255,255
111000,8.506,-0.018,32.721,255,255,255
111250,8.506,-0.018,32.721,255,255,255
111500,8.506,-0.018,32.721,255,255,255
111750,8.506,-0.018,32.721,255,255,255
112000,8.506,-0.018,32.721,255,255,255
112250,8.506,-0.018,32.721,255,255,255
112500,8.506,-0.018,32.721,255,255,255
112750,8.506,-0.018,32.721,255,255,255
113000,8.506,-0.018,32.721,255,255,255
113250,8.506,-0.018,32.721,255,255,255
113500,8.506,-0.018,32.721,255,255,255
113750,8.506,-0.018,32.721,255,255,255
114000,8.506,-0.018,32.721,255,255,255
114250,8.506,-0.018,32.721,255,255,255
114500,8.506,-0.018,32.721,255,255,255
114750,8.506,-0.018,32.721,255,255,255
115000,8.506,-0.018,32.721,255,255,255
115250,8.506,-0.018,32.721,255,255,255
115500,8.506,-0.018,32.721,255,255,255
115750,8.506,-0.018,32.721,255,255,255
116000,8.506,-0.018,32.721,255,255,255
116250,8.506,-0.018,32.721,255,255,255
116500,8.506,-0.018,32.721,255,255,255
116750,8.506,-0.018,32.721,255,255,255
117000,8.506,-0.018,32.721,255,255,255
117250,8.506,-0.018,32.721,255,255,255
117500,8.506,-0.018,32.721,255,255,255
117750,8.506,-0.018,32.7153,255,255,255
118000,8.506,-0.018,32.6984,255,255,255
118250,8.506,-0.018,32.6703,255,255,255
118500,8.506,-0.018,32.6313,255,255,255
118750,8.506,-0.018,32.5816,255,255,255
119000,8.506,-0.018,32.5214,255,255,255
119250,8.506,-0.018,32.4507,255,255,255
119500,8.506,-0.018,32.3698,255,255,255
119750,8.506,-0.018,32.2789,255,255,255
120000,8.506,-0.018,32.1781,255,255,255
120250,8.506,-0.018,32.0676,255,255,255
120500,8.506,-0.018,31.9476,255,255,255
120750,8.506,-0.018,31.8183,255,255,255
121000,8.506,-0.018,31.6797,255,255,255
121250,8.506,-0.018,31.5322,255,255,255
121500,8.506,-0.018,31.3759,255,255,255
121750,8.506,-0.018,31.2109,255,255,255
122000,8.506,-0.018,31.0375,255,255,255
122250,8.506,-0.018,30.8557,255,255,255
122500,8.506,-0.018,30.6658,255,255,255
122750,8.506,-0.018,30.468,255,255,255
123000,8.506,-0.018,30.2624,255,255,255
123250,8.506,-0.018,30.0492,255,255,255
123500,8.506,-0.018,29.8286,255,255,255
123750,8.506,-0.018,29.6008,255,255,255
124000,8.506,-0.018,29.3658,255,255,255
124250,8.506,-0.018,29.124,255,255,255
