Time [msec],x [m],y [m],z [m],Red,Green,Blue
0,-13.5,10.5,0,255,255,255
250,-13.5014,10.5,0.0012,255,255,255
500,-13.5068,10.5,0.0057,255,255,255
750,-13.5162,10.4999,0.0135,255,255,255
1000,-13.5297,10.4998,0.0246,255,255,255
1250,-13.5471,10.4997,0.0391,255,255,255
1500,-13.5685,10.4995,0.0569,255,255,255
1750,-13.5939,10.4994,0.0779,255,255,255
2000,-13.6232,10.4992,0.1022,255,255,255
2250,-13.6564,10.499,0.1298,255,255,255
2500,-13.6935,10.4987,0.1605,255,255,255
2750,-13.7345,10.4985,0.1945,255,255,255
3000,-13.7793,10.4982,0.2317,255,255,255
3250,-13.8279,10.4979,0.2721,255,255,255
3500,-13.8804,10.4975,0.3156,255,255,255
3750,-13.9366,10.4972,0.3622,255,255,255
4000,-13.9966,10.4968,0.412,255,255,255
4250,-14.0603,10.4964,0.4649,255,255,255
4500,-14.1278,10.4959,0.5209,255,255,255
4750,-14.199,10.4955,0.5799,255,255,255
5000,-14.2738,10.495,0.6421,255,255,255
5250,-14.3523,10.4945,0.7072,255,255,255
5500,-14.4345,10.494,0.7754,255,255,255
5750,-14.5203,10.4934,0.8466,255,255,255
6000,-14.6097,10.4929,0.9207,255,255,255
6250,-14.7026,10.4923,0.9979,255,255,255
6500,-14.7992,10.4917,1.078,255,255,255
6750,-14.8992,10.491,1.161,255,255,255
7000,-15.0028,10.4904,1.2469,255,255,255
7250,-15.1099,10.4897,1.3358,255,255,255
7500,-15.2205,10.489,1.4275,255,255,255
7750,-15.3345,10.4883,1.5222,255,255,255
8000,-15.452,10.4876,1.6196,255,255,255
8250,-15.5729,10.4868,1.7199,255,255,255
8500,-15.6971,10.4861,1.823,255,255,255
8750,-15.8248,10.4853,1.929,255,255,255
9000,-15.9558,10.4845,2.0377,255,255,255
9250,-16.0901,10.4836,2.1492,255,255,255
9500,-16.2278,10.4828,2.2634,255,255,255
9750,-16.3687,10.4819,2.3803,255,255,255
10000,-16.513,10.481,2.5,255,255,255
10250,-16.6604,10.4801,2.6224,255,255,255
10500,-16.8112,10.4792,2.7474,255,255,255
10750,-16.9651,10.4783,2.8752,255,255,255
11000,-17.1222,10.4773,3.0055,255,255,255
11250,-17.2825,10.4764,3.1385,255,255,255
11500,-17.4459,10.4754,3.2742,255,255,255
11750,-17.6125,10.4744,3.4124,255,255,255
12000,-17.7821,10.4734,3.5532,255,255,255
12250,-17.9549,10.4723,3.6965,255,255,255
12500,-18.1307,10.4713,3.8424,255,255,255
12750,-18.3096,10.4702,3.9909,255,255,255
13000,-18.4915,10.4692,4.1418,255,255,255
13250,-18.6764,10.4681,4.2953,255,255,255
13500,-18.8643,10.467,4.4512,255,255,255
13750,-19.0552,10.4658,4.6096,255,255,255
14000,-19.249,10.4647,4.7704,255,255,255
14250,-19.4457,10.4636,4.9336,255,255,255
14500,-19.6453,10.4624,5.0993,255,255,255
14750,-19.8479,10.4612,5.2674,255,255,255
15000,-20.0532,10.46,5.4378,255,255,255
15250,-20.2615,10.4588,5.6106,255,255,255
15500,-20.4725,10.4576,5.7857,255,255,255
15750,-20.6864,10.4564,5.9632,255,255,255
16000,-20.903,10.4551,6.1429,255,255,255
16250,-21.1224,10.4539,6.325,255,255,255
16500,-21.3445,10.4526,6.5093,255,255,255
16750,-21.5693,10.4513,6.6959,255,255,255
17000,-21.7969,10.4501,6.8847,255,255,255
17250,-22.0271,10.4488,7.0758,255,255,255
17500,-22.26,10.4474,7.2691,255,255,255
17750,-22.4955,10.4461,7.4645,255,255,255
18000,-22.7336,10.4448,7.6621,255,255,255
18250,-22.9744,10.4435,7.8619,255,255,255
18500,-23.2177,10.4421,8.0638,255,255,255
18750,-23.4635,10.4407,8.2678,255,255,255
19000,-23.7119,10.4394,8.474,255,255,255
19250,-23.9628,10.438,8.6822,255,255,255
19500,-24.2162,10.4366,8.8925,255,255,255
19750,-24.4721,10.4352,9.1049,255,255,255
20000,-24.7304,10.4338,9.3192,255,255,255
20250,-24.9912,10.4324,9.5356,255,255,255
20500,-25.2543,10.431,9.754,255,255,255
20750,-25.5199,10.4295,9.9744,255,255,255
21000,-25.7878,10.4281,10.1968,255,255,255
21250,-26.0581,10.4267,10.4211,255,255,255
21500,-26.3307,10.4252,10.6473,255,255,255
21750,-26.6056,10.4238,10.8755,255,255,255
22000,-26.8828,10.4223,11.1055,255,255,255
22250,-27.1623,10.4208,11.3375,255,255,255
22500,-27.444,10.4193,11.5713,255,255,255
22750,-27.7279,10.4179,11.8069,255,255,255
23000,-28.0141,10.4164,12.0444,255,255,255
23250,-28.3024,10.4149,12.2837,255,255,255
23500,-28.5929,10.4134,12.5248,255,255,255
23750,-28.8855,10.4119,12.7677,255,255,255
24000,-29.1803,10.4104,13.0124,255,255,255
24250,-29.4772,10.4088,13.2587,255,255,255
24500,-29.7761,10.4073,13.5069,255,255,255
24750,-30.0771,10.4058,13.7567,255,255,255
25000,-30.3802,10.4043,14.0082,255,255,255
25250,-30.6853,10.4027,14.2614,255,255,255
25500,-30.9923,10.4012,14.5163,255,255,255
25750,-31.3014,10.3997,14.7728,255,255,255
26000,-31.6124,10.3981,15.0309,255,255,255
26250,-31.9254,10.3966,15.2907,255,255,255
26500,-32.2402,10.3951,15.552,255,255,255
26750,-32.557,10.3935,15.8149,255,255,255
27000,-32.8757,10.392,16.0794,255,255,255
27250,-33.1962,10.3904,16.3454,255,255,255
27500,-33.5185,10.3889,16.613,255,255,255
27750,-33.8427,10.3873,16.882,255,255,255
28000,-34.1686,10.3857,17.1526,255,255,255
28250,-34.4963,10.3842,17.4246,255,255,255
28500,-34.8258,10.3826,17.6981,255,255,255
28750,-35.157,10.3811,17.973,255,255,255
29000,-35.4899,10.3795,18.2493,255,255,255
29250,-35.8246,10.378,18.5271,255,255,255
29500,-36.1608,10.3764,18.8062,255,255,255
29750,-36.4988,10.3749,19.0867,255,255,255
30000,-36.8384,10.3733,19.3686,255,255,255
30250,-37.1795,10.3718,19.6518,255,255,255
30500,-37.5223,10.3702,19.9363,255,255,255
30750,-37.8667,10.3687,20.2221,255,255,255
31000,-38.2125,10.3671,20.5093,255,255,255
31250,-38.56,10.3656,20.7976,255,255,255
31500,-38.9089,10.364,21.0873,255,255,255
31750,-39.2593,10.3625,21.3781,255,255,255
32000,-39.6112,10.3609,21.6702,255,255,255
32250,-39.9645,10.3594,21.9635,255,255,255
32500,-40.3193,10.3579,22.258,255,255,255
32750,-40.6754,10.3563,22.5537,255,255,255
33000,-41.0329,10.3548,22.8505,255,255,255
33250,-41.3919,10.3533,23.1484,255,255,255
33500,-41.7521,10.3518,23.4474,255,255,255
33750,-42.1137,10.3503,23.7476,255,255,255
34000,-42.4765,10.3488,24.0488,255,255,255
34250,-42.8407,10.3473,24.3511,255,255,255
34500,-43.2061,10.3457,24.6545,255,255,255
34750,-43.5728,10.3442,24.9588,255,255,255
35000,-43.9406,10.3427,25.2642,255,255,255
35250,-44.3097,10.3412,25.5706,255,255,255
35500,-44.6799,10.3396,25.8779,255,255,255
35750,-45.0513,10.338,26.1862,255,255,255
36000,-45.4238,10.3365,26.4954,255,255,255
36250,-45.7975,10.3349,26.8056,255,255,255
36500,-46.1722,10.3333,27.1167,255,255,255
36750,-46.548,10.3317,27.4286,255,255,255
37000,-46.9248,10.33,27.7414,255,255,255
37250,-47.3027,10.3284,28.0551,255,255,255
37500,-47.6816,10.3267,28.3696,255,255,255
37750,-48.0615,10.3251,28.6849,255,255,255
38000,-48.4423,10.3234,29.0011,255,255,255
38250,-48.8241,10.3217,29.318,255,255,255
38500,-49.2068,10.3201,29.6357,255,255,255
38750,-49.5905,10.3184,29.9541,255,255,255
39000,-49.975,10.3166,30.2733,255,255,255
39250,-50.3604,10.3149,30.5932,255,255,255
39500,-50.7466,10.3132,30.9138,255,255,255
39750,-51.1336,10.3115,31.2351,255,255,255
40000,-51.5215,10.3097,31.557,255,255,255
40250,-51.9101,10.3079,31.8796,255,255,255
40500,-52.2995,10.3062,32.2028,255,255,255
40750,-52.6897,10.3044,32.5267,255,255,255
41000,-53.0805,10.3026,32.8511,255,255,255
41250,-53.4721,10.3008,33.1762,255,255,255
41500,-53.8644,10.299,33.5017,255,255,255
41750,-54.2573,10.2972,33.8279,255,255,255
42000,-54.6508,10.2954,34.1545,255,255,255
42250,-55.045,10.2935,34.4817,255,255,255
42500,-55.4397,10.2917,34.8094,255,255,255
42750,-55.8351,10.2899,35.1375,255,255,255
43000,-56.231,10.288,35.4661,255,255,255
43250,-56.6274,10.2861,35.7952,255,255,255
43500,-57.0244,10.2843,36.1247,255,255,255
43750,-57.4218,10.2824,36.4546,255,255,255
44000,-57.8198,10.2805,36.7849,255,255,255
44250,-58.2181,10.2786,37.1155,255,255,255
44500,-58.617,10.2767,37.4466,255,255,255
44750,-59.0162,10.2748,37.7779,255,255,255
45000,-59.4158,10.2729,38.1096,255,255,255
45250,-59.8158,10.271,38.4416,255,255,255
45500,-60.2161,10.2691,38.7739,255,255,255
45750,-60.6168,10.2671,39.1065,255,255,255
46000,-61.0178,10.2652,39.4393,255,255,255
46250,-61.4191,10.2632,39.7724,255,255,255
46500,-61.8206,10.2613,40.1056,255,255,255
46750,-62.2224,10.2593,40.4391,255,255,255
47000,-62.6244,10.2574,40.7728,255,255,255
47250,-63.0267,10.2554,41.1067,255,255,255
47500,-63.4291,10.2534,41.4407,255,255,255
47750,-63.8317,10.2515,41.7748,255,255,255
48000,-64.2344,10.2495,42.1091,255,255,255
48250,-64.6373,10.2475,42.4435,255,255,255
48500,-65.0402,10.2455,42.7779,255,255,255
48750,-65.4433,10.2435,43.1124,255,255,255
49000,-65.8464,10.2415,43.447,255,255,255
49250,-66.2496,10.2395,43.7816,255,255,255
49500,-66.6527,10.2375,44.1163,255,255,255
49750,-67.0559,10.2355,44.4509,255,255,255
50000,-67.4591,10.2334,44.7855,255,255,255
50250,-67.8622,10.2314,45.1201,255,255,255
50500,-68.2653,10.2294,45.4546,255,255,255
50750,-68.6683,10.2274,45.7891,255,255,255
51000,-69.0712,10.2253,46.1235,255,255,255
51250,-69.4739,10.2233,46.4578,255,255,255
51500,-69.8765,10.2213,46.7919,255,255,255
51750,-70.279,10.2192,47.126,255,255,255
52000,-70.6813,10.2172,47.4598,255,255,255
52250,-71.0834,10.2151,47.7935,255,255,255
52500,-71.4852,10.2131,48.1271,255,255,255
52750,-71.8868,10.211,48.4604,255,255,255
53000,-72.2882,10.209,48.7935,255,255,255
53250,-72.6892,10.2069,49.1263,255,255,255
53500,-73.09,10.2048,49.4589,255,255,255
53750,-73.4904,10.2028,49.7913,255,255,255
54000,-73.8905,10.2007,50.1233,255,255,255
54250,-74.2902,10.1987,50.4551,255,255,255
54500,-74.6895,10.1966,50.7865,255,255,255
54750,-75.0884,10.1945,51.1176,255,255,255
55000,-75.4869,10.1925,51.4483,255,255,255
55250,-75.8849,10.1904,51.7786,255,255,255
55500,-76.2825,10.1883,52.1086,255,255,255
55750,-76.6796,10.1863,52.4381,255,255,255
56000,-77.0761,10.1842,52.7673,255,255,255
56250,-77.4722,10.1821,53.0959,255,255,255
56500,-77.8676,10.1801,53.4242,255,255,255
56750,-78.2625,10.178,53.7519,255,255,255
57000,-78.6568,10.1759,54.0791,255,255,255
57250,-79.0505,10.1738,54.4059,255,255,255
57500,-79.4436,10.1718,54.7321,255,255,255
57750,-79.836,10.1697,55.0578,255,255,255
58000,-80.2277,10.1676,55.3829,255,255,255
58250,-80.6188,10.1656,55.7074,255,255,255
58500,-81.0091,10.1635,56.0313,255,255,255
58750,-81.3987,10.1614,56.3547,255,255,255
59000,-81.7875,10.1594,56.6774,255,255,255
59250,-82.1755,10.1573,56.9994,255,255,255
59500,-82.5628,10.1552,57.3208,255,255,255
59750,-82.9492,10.1532,57.6415,255,255,255
60000,-83.3348,10.1511,57.9615,255,255,255
60250,-83.7195,10.1491,58.2808,255,255,255
60500,-84.1033,10.147,58.5993,255,255,255
60750,-84.4863,10.145,58.9171,255,255,255
61000,-84.8683,10.1429,59.2342,255,255,255
61250,-85.2493,10.1409,59.5504,255,255,255
61500,-85.6294,10.1388,59.8659,255,255,255
61750,-86.0086,10.1368,60.1805,255,255,255
62000,-86.3867,10.1348,60.4943,255,255,255
62250,-86.7638,10.1327,60.8073,255,255,255
62500,-87.1398,10.1307,61.1193,255,255,255
62750,-87.5148,10.1287,61.4305,255,255,255
63000,-87.8887,10.1266,61.7408,255,255,255
63250,-88.2615,10.1246,62.0502,255,255,255
63500,-88.6331,10.1226,62.3586,255,255,255
63750,-89.0036,10.1206,62.6661,255,255,255
64000,-89.373,10.1186,62.9726,255,255,255
64250,-89.7411,10.1166,63.2782,255,255,255
64500,-90.1081,10.1146,63.5827,255,255,255
64750,-90.4738,10.1126,63.8862,255,255,255
65000,-90.8382,10.1106,64.1887,255,255,255
65250,-91.2014,10.1086,64.4901,255,255,255
65500,-91.5633,10.1066,64.7904,255,255,255
65750,-91.9239,10.1046,65.0896,255,255,255
66000,-92.2831,10.1027,65.3878,255,255,255
66250,-92.641,10.1007,65.6848,255,255,255
66500,-92.9975,10.0987,65.9806,255,255,255
66750,-93.3526,10.0968,66.2753,255,255,255
67000,-93.7063,10.0948,66.5689,255,255,255
67250,-94.0586,10.0929,66.8612,255,255,255
67500,-94.4094,10.091,67.1523,255,255,255
67750,-94.7587,10.089,67.4422,255,255,255
68000,-95.1065,10.0871,67.7309,255,255,255
68250,-95.4529,10.0852,68.0183,255,255,255
68500,-95.7976,10.0833,68.3044,255,255,255
68750,-96.1408,10.0814,68.5893,255,255,255
69000,-96.4825,10.0795,68.8728,255,255,255
69250,-96.8225,10.0776,69.155,255,255,255
69500,-97.1609,10.0757,69.4358,255,255,255
69750,-97.4977,10.0738,69.7153,255,255,255
70000,-97.8328,10.072,69.9934,255,255,255
70250,-98.1662,10.0701,70.2701,255,255,255
70500,-98.4979,10.0683,70.5453,255,255,255
70750,-98.8279,10.0664,70.8192,255,255,255
71000,-99.1562,10.0646,71.0916,255,255,255
71250,-99.4826,10.0628,71.3625,255,255,255
71500,-99.8073,10.0609,71.632,255,255,255
71750,-100.1302,10.0591,71.9,255,255,255
72000,-100.4513,10.0573,72.1664,255,255,255
72250,-100.7705,10.0555,72.4313,255,255,255
72500,-101.0879,10.0537,72.6947,255,255,255
72750,-101.4033,10.052,72.9564,255,255,255
73000,-101.7169,10.0502,73.2166,255,255,255
73250,-102.0285,10.0485,73.4752,255,255,255
73500,-102.3381,10.0467,73.7322,255,255,255
73750,-102.6458,10.045,73.9876,255,255,255
74000,-102.9515,10.0432,74.2413,255,255,255
74250,-103.2552,10.0415,74.4933,255,255,255
74500,-103.5569,10.0398,74.7436,255,255,255
74750,-103.8565,10.0381,74.9923,255,255,255
75000,-104.154,10.0364,75.2392,255,255,255
75250,-104.4495,10.0348,75.4843,255,255,255
75500,-104.7428,10.0331,75.7278,255,255,255
75750,-105.034,10.0314,75.9694,255,255,255
76000,-105.323,10.0298,76.2093,255,255,255
76250,-105.6099,10.0282,76.4473,255,255,255
76500,-105.8945,10.0265,76.6835,255,255,255
76750,-106.1769,10.0249,76.9179,255,255,255
77000,-106.4571,10.0233,77.1504,255,255,255
77250,-106.7351,10.0218,77.3811,255,255,255
77500,-107.0108,10.0202,77.6098,255,255,255
77750,-107.2841,10.0186,77.8367,255,255,255
78000,-107.5552,10.0171,78.0616,255,255,255
78250,-107.8239,10.0155,78.2846,255,255,255
78500,-108.0902,10.014,78.5056,255,255,255
78750,-108.3541,10.0125,78.7247,255,255,255
79000,-108.6157,10.011,78.9417,255,255,255
79250,-108.8748,10.0095,79.1567,255,255,255
79500,-109.1315,10.008,79.3698,255,255,255
79750,-109.3857,10.0066,79.5807,255,255,255
80000,-109.6375,10.0051,79.7896,255,255,255
80250,-109.8867,10.0037,79.9964,255,255,255
80500,-110.1334,10.0023,80.2012,255,255,255
80750,-110.3776,10.0009,80.4038,255,255,255
81000,-110.6191,9.9995,80.6043,255,255,255
81250,-110.8581,9.9981,80.8026,255,255,255
81500,-111.0945,9.9967,80.9988,255,255,255
81750,-111.3283,9.9954,81.1927,255,255,255
82000,-111.5594,9.9941,81.3845,255,255,255
82250,-111.7879,9.9927,81.5741,255,255,255
82500,-112.0136,9.9914,81.7614,255,255,255
82750,-112.2367,9.9901,81.9465,255,255,255
83000,-112.457,9.9889,82.1294,255,255,255
83250,-112.6745,9.9876,82.3099,255,255,255
83500,-112.8893,9.9864,82.4881,255,255,255
83750,-113.1013,9.9851,82.6641,255,255,255
84000,-113.3105,9.9839,82.8376,255,255,255
84250,-113.5168,9.9827,83.0089,255,255,255
84500,-113.7203,9.9815,83.1777,255,255,255
84750,-113.9209,9.9804,83.3442,255,255,255
85000,-114.1186,9.9792,83.5083,255,255,255
85250,-114.3134,9.9781,83.6699,255,255,255
85500,-114.5053,9.977,83.8291,255,255,255
85750,-114.6942,9.9759,83.9859,255,255,255
86000,-114.8801,9.9748,84.1402,255,255,255
86250,-115.0631,9.9737,84.292,255,255,255
86500,-115.243,9.9727,84.4413,255,255,255
86750,-115.4198,9.9716,84.588,255,255,255
87000,-115.5936,9.9706,84.7323,255,255,255
87250,-115.7644,9.9696,84.8739,255,255,255
87500,-115.932,9.9686,85.013,255,255,255
87750,-116.0965,9.9677,85.1495,255,255,255
88000,-116.2578,9.9667,85.2834,255,255,255
88250,-116.416,9.9658,85.4147,255,255,255
88500,-116.571,9.9649,85.5434,255,255,255
88750,-116.7228,9.964,85.6693,255,255,255
89000,-116.8714,9.9631,85.7926,255,255,255
89250,-117.0168,9.9623,85.9132,255,255,255
89500,-117.1588,9.9614,86.0311,255,255,255
89750,-117.2976,9.9606,86.1463,255,255,255
90000,-117.4331,9.9598,86.2587,255,255,255
90250,-117.5652,9.959,86.3684,255,255,255
90500,-117.694,9.9583,86.4752,255,255,255
90750,-117.8194,9.9575,86.5793,255,255,255
91000,-117.9415,9.9568,86.6806,255,255,255
91250,-118.0601,9.9561,86.779,255,255,255
91500,-118.1753,9.9554,86.8746,255,255,255
91750,-118.2871,9.9548,86.9673,255,255,255
92000,-118.3953,9.9541,87.0572,255,255,255
92250,-118.5001,9.9535,87.1441,255,255,255
92500,-118.6014,9.9529,87.2282,255,255,255
92750,-118.6991,9.9523,87.3093,255,255,255
93000,-118.7933,9.9518,87.3874,255,255,255
93250,-118.8839,9.9512,87.4626,255,255,255
93500,-118.9709,9.9507,87.5348,255,255,255
93750,-119.0543,9.9502,87.604,255,255,255
94000,-119.1341,9.9498,87.6702,255,255,255
94250,-119.2102,9.9493,87.7334,255,255,255
94500,-119.2826,9.9489,87.7935,255,255,255
94750,-119.3513,9.9485,87.8505,255,255,255
95000,-119.4163,9.9481,87.9044,255,255,255
95250,-119.4776,9.9477,87.9553,255,255,255
95500,-119.5351,9.9474,88.003,255,255,255
95750,-119.5888,9.9471,88.0476,255,255,255
96000,-119.6388,9.9468,88.089,255,255,255
96250,-119.6849,9.9465,88.1273,255,255,255
96500,-119.7271,9.9462,88.1623,255,255,255
96750,-119.7655,9.946,88.1942,255,255,255
97000,-119.8,9.9458,88.2228,255,255,255
97250,-119.8307,9.9456,88.2483,255,255,255
97500,-119.8574,9.9455,88.2704,255,255,255
97750,-119.8801,9.9453,88.2893,255,255,255
98000,-119.8989,9.9452,88.3049,255,255,255
98250,-119.9137,9.9451,88.3171,255,255,255
98500,-119.9245,9.9451,88.3261,255,255,255
98750,-119.9312,9.945,88.3317,255,255,255
99000,-119.9339,9.945,88.334,255,255,255
99250,-119.934,9.945,88.334,255,255,255
99500,-119.934,9.945,88.334,255,255,255
99750,-119.934,9.945,88.334,255,255,255
100000,-119.934,9.945,88.334,255,255,255
100250,-119.934,9.945,88.334,255,255,255
100500,-119.934,9.945,88.334,255,255,255
100750,-119.934,9.945,88.334,255,255,255
101000,-119.934,9.945,88.334,255,255,255
101250,-119.934,9.945,88.334,255,255,255
101500,-119.934,9.945,88.334,255,255,255
101750,-119.934,9.945,88.334,255,255,255
102000,-119.934,9.945,88.334,255,255,255
102250,-119.934,9.945,88.334,255,255,255
102500,-119.934,9.945,88.334,255,255,255
102750,-119.934,9.945,88.334,255,255,255
103000,-119.934,9.945,88.334,255,255,255
103250,-119.934,9.945,88.334,255,255,255
103500,-119.934,9.945,88.334,255,255,255
103750,-119.934,9.945,88.334,255,255,255
104000,-119.934,9.945,88.334,255,255,255
104250,-119.934,9.945,88.334,255,255,255
104500,-119.934,9.945,88.334,255,255,255
104750,-119.934,9.945,88.334,255,255,255
105000,-119.934,9.945,88.334,255,255,255
105250,-119.934,9.945,88.334,255,255,255
105500,-119.934,9.945,88.334,255,255,255
105750,-119.934,9.945,88.334,255,255,255
106000,-119.934,9.945,88.334,255,255,255
106250,-119.934,9.945,88.334,255,255,255
106500,-119.934,9.945,88.334,255,255,255
106750,-119.934,9.945,88.334,255,255,255
107000,-119.934,9.945,88.334,255,255,255
107250,-119.934,9.945,88.334,255,255,255
107500,-119.934,9.945,88.334,255,255,255
107750,-119.934,9.945,88.334,255,255,255
108000,-119.934,9.945,88.334,255,255,255
108250,-119.934,9.945,88.334,255,255,255
108500,-119.934,9.945,88.334,255,255,255
108750,-119.934,9.945,88.334,255,255,255
109000,-119.934,9.945,88.334,255,255,255
109250,-119.934,9.945,88.334,255,255,255
109500,-119.934,9.945,88.334,255,255,255
109750,-119.934,9.945,88.334,255,255,255
110000,-119.934,9.945,88.334,255,255,255
110250,-119.934,9.945,88.334,255,255,255
110500,-119.934,9.945,88.334,255,255,255
110750,-119.934,9.945,88.334,255,255,255
111000,-119.934,9.945,88.334,255,255,255
111250,-119.934,9.945,88.334,255,255,255
111500,-119.934,9.945,88.334,255,255,255
111750,-119.934,9.945,88.334,255,255,255
112000,-119.934,9.945,88.334,255,255,255
112250,-119.934,9.945,88.334,255,255,255
112500,-119.934,9.945,88.334,255,255,255
112750,-119.934,9.945,88.334,255,255,255
113000,-119.934,9.945,88.334,255,255,255
113250,-119.934,9.945,88.334,255,255,255
113500,-119.934,9.945,88.334,255,255,255
113750,-119.934,9.945,88.334,255,255,255
114000,-119.934,9.945,88.334,255,255,255
114250,-119.934,9.945,88.334,255,255,255
114500,-119.934,9.945,88.334,255,255,255
114750,-119.934,9.945,88.334,255,255,255
115000,-119.934,9.945,88.334,255,255,255
