Time [msec],x [m],y [m],z [m],Red,Green,Blue
0,7.5,-13.5,0,255,255,255
250,7.494,-13.4888,0.0124,255,255,255
500,7.4717,-13.4469,0.0589,255,255,255
750,7.4337,-13.3756,0.1379,255,255,255
1000,7.381,-13.277,0.2474,255,255,255
1250,7.3148,-13.1528,0.3852,255,255,255
1500,7.236,-13.005,0.5492,255,255,255
1750,7.1456,-12.8355,0.7373,255,255,255
2000,7.0446,-12.6463,0.9474,255,255,255
2250,6.9341,-12.4391,1.1775,255,255,255
2500,6.815,-12.216,1.4253,255,255,255
2750,6.6884,-11.9788,1.6888,255,255,255
3000,6.5553,-11.7294,1.9659,255,255,255
3250,6.4167,-11.4697,2.2544,255,255,255
3500,6.2737,-11.2017,2.5524,255,255,255
3750,6.1272,-10.9273,2.8576,255,255,255
4000,5.9782,-10.6483,3.1679,255,255,255
4250,5.8278,-10.3666,3.4813,255,255,255
4500,5.6769,-10.0842,3.7957,255,255,255
4750,5.5267,-9.803,4.1089,255,255,255
5000,5.3781,-9.5249,4.4189,255,255,255
5250,5.2321,-9.2517,4.7235,255,255,255
5500,5.0897,-8.9855,5.0206,255,255,255
5750,4.952,-8.728,5.3082,255,255,255
6000,4.82,-8.4812,5.5841,255,255,255
6250,4.6946,-8.247,5.8461,255,255,255
6500,4.5769,-8.0273,6.0923,255,255,255
6750,4.4655,-7.8193,6.3255,255,255,255
7000,4.3564,-7.6147,6.5538,255,255,255
7250,4.2494,-7.4135,6.7772,255,255,255
7500,4.1446,-7.2158,6.9958,255,255,255
7750,4.042,-7.0215,7.2094,255,255,255
8000,3.9417,-6.8309,7.418,255,255,255
8250,3.8438,-6.6439,7.6214,255,255,255
8500,3.7481,-6.4605,7.8196,255,255,255
8750,3.6548,-6.2809,8.0124,255,255,255
9000,3.5639,-6.1051,8.1999,255,255,255
9250,3.4755,-5.9332,8.3818,255,255,255
9500,3.3895,-5.7651,8.5581,255,255,255
9750,3.306,-5.6011,8.7288,255,255,255
10000,3.225,-5.4411,8.8937,255,255,255
10250,3.1466,-5.2852,9.0527,255,255,255
10500,3.0709,-5.1334,9.2057,255,255,255
10750,2.9977,-4.9858,9.3528,255,255,255
11000,2.9272,-4.8425,9.4936,255,255,255
11250,2.8594,-4.7036,9.6283,255,255,255
11500,2.7944,-4.569,9.7567,255,255,255
11750,2.7321,-4.4389,9.8786,255,255,255
12000,2.6726,-4.3132,9.9941,255,255,255
12250,2.6159,-4.1922,10.103,255,255,255
12500,2.5621,-4.0757,10.2052,255,255,255
12750,2.5112,-3.964,10.3007,255,255,255
13000,2.4633,-3.8569,10.3893,255,255,255
13250,2.4183,-3.7547,10.471,255,255,255
13500,2.3762,-3.6572,10.5456,255,255,255
13750,2.337,-3.5643,10.6133,255,255,255
14000,2.3005,-3.4758,10.6743,255,255,255
14250,2.2667,-3.3915,10.7287,255,255,255
14500,2.2355,-3.3114,10.7769,255,255,255
14750,2.2068,-3.2353,10.8191,255,255,255
15000,2.1805,-3.1631,10.8555,255,255,255
15250,2.1566,-3.0946,10.8862,255,255,255
15500,2.1349,-3.0298,10.9117,255,255,255
15750,2.1153,-2.9684,10.932,255,255,255
16000,2.0979,-2.9105,10.9475,255,255,255
16250,2.0824,-2.8557,10.9582,255,255,255
16500,2.0689,-2.8041,10.9646,255,255,255
16750,2.0573,-2.7554,10.9668,255,255,255
17000,2.0473,-2.7096,10.965,255,255,255
17250,2.0391,-2.6664,10.9595,255,255,255
17500,2.0325,-2.6259,10.9505,255,255,255
17750,2.0273,-2.5878,10.9382,255,255,255
18000,2.0236,-2.552,10.9229,255,255,255
18250,2.0213,-2.5184,10.9048,255,255,255
18500,2.0202,-2.4869,10.8841,255,255,255
18750,2.0203,-2.4573,10.8611,255,255,255
19000,2.0215,-2.4295,10.8359,255,255,255
19250,2.0237,-2.4034,10.8089,255,255,255
19500,2.0268,-2.3788,10.7802,255,255,255
19750,2.0308,-2.3556,10.7501,255,255,255
20000,2.0355,-2.3337,10.7188,255,255,255
20250,2.041,-2.313,10.6865,255,255,255
20500,2.047,-2.2932,10.6535,255,255,255
20750,2.0536,-2.2744,10.62,255,255,255
21000,2.0606,-2.2563,10.5862,255,255,255
21250,2.068,-2.2388,10.5524,255,255,255
21500,2.0756,-2.2218,10.5188,255,255,255
21750,2.0834,-2.2052,10.4856,255,255,255
22000,2.0914,-2.1888,10.453,255,255,255
22250,2.0993,-2.1726,10.4214,255,255,255
22500,2.1073,-2.1563,10.3908,255,255,255
22750,2.115,-2.1398,10.3616,255,255,255
23000,2.1226,-2.1231,10.334,255,255,255
23250,2.1298,-2.1059,10.3081,255,255,255
23500,2.1368,-2.0893,10.2846,255,255,255
23750,2.1438,-2.075,10.264,255,255,255
24000,2.1507,-2.0629,10.2462,255,255,255
24250,2.1576,-2.053,10.231,255,255,255
24500,2.1644,-2.0452,10.2183,255,255,255
24750,2.1713,-2.0393,10.2079,255,255,255
25000,2.1781,-2.0352,10.1998,255,255,255
25250,2.1848,-2.0328,10.1938,255,255,255
25500,2.1916,-2.0321,10.1897,255,255,255
25750,2.1983,-2.0328,10.1875,255,255,255
26000,2.205,-2.0349,10.187,255,255,255
26250,2.2117,-2.0382,10.188,255,255,255
26500,2.2184,-2.0427,10.1904,255,255,255
26750,2.2251,-2.0483,10.1942,255,255,255
27000,2.2318,-2.0548,10.199,255,255,255
27250,2.2384,-2.0621,10.2049,255,255,255
27500,2.2451,-2.0701,10.2117,255,255,255
27750,2.2517,-2.0787,10.2193,255,255,255
28000,2.2584,-2.0878,10.2275,255,255,255
28250,2.265,-2.0973,10.2361,255,255,255
28500,2.2717,-2.107,10.2451,255,255,255
28750,2.2783,-2.1169,10.2543,255,255,255
29000,2.285,-2.1268,10.2636,255,255,255
29250,2.2916,-2.1367,10.2728,255,255,255
29500,2.2983,-2.1463,10.2819,255,255,255
29750,2.305,-2.1557,10.2906,255,255,255
30000,2.3117,-2.1647,10.2989,255,255,255
30250,2.3184,-2.1731,10.3065,255,255,255
30500,2.3251,-2.1809,10.3135,255,255,255
30750,2.3319,-2.188,10.3196,255,255,255
31000,2.3387,-2.1943,10.3247,255,255,255
31250,2.3455,-2.1995,10.3286,255,255,255
31500,2.3523,-2.2037,10.3313,255,255,255
31750,2.3591,-2.2067,10.3326,255,255,255
32000,2.366,-2.2084,10.3324,255,255,255
32250,2.3729,-2.2087,10.3305,255,255,255
32500,2.3798,-2.2075,10.3268,255,255,255
32750,2.3868,-2.2046,10.3211,255,255,255
33000,2.3938,-2.2002,10.3131,255,255,255
33250,2.4008,-2.1942,10.3022,255,255,255
33500,2.4077,-2.1865,10.2885,255,255,255
33750,2.4146,-2.1768,10.2722,255,255,255
34000,2.4215,-2.1652,10.2533,255,255,255
34250,2.4284,-2.1512,10.232,255,255,255
34500,2.4352,-2.1349,10.2085,255,255,255
34750,2.442,-2.1159,10.1828,255,255,255
35000,2.4488,-2.0941,10.1552,255,255,255
35250,2.4556,-2.0694,10.1256,255,255,255
35500,2.4623,-2.0415,10.0944,255,255,255
35750,2.469,-2.0103,10.0615,255,255,255
36000,2.4756,-1.9756,10.0271,255,255,255
36250,2.4822,-1.9371,9.9914,255,255,255
36500,2.4888,-1.8949,9.9545,255,255,255
36750,2.4954,-1.8485,9.9166,255,255,255
37000,2.5019,-1.7979,9.8776,255,255,255
37250,2.5084,-1.7436,9.8379,255,255,255
37500,2.5149,-1.6866,9.7975,255,255,255
37750,2.5215,-1.6274,9.7564,255,255,255
38000,2.5281,-1.5661,9.7147,255,255,255
38250,2.5347,-1.5031,9.6723,255,255,255
38500,2.5413,-1.4386,9.6294,255,255,255
38750,2.5479,-1.3729,9.586,255,255,255
39000,2.5546,-1.3062,9.542,255,255,255
39250,2.5613,-1.2389,9.4975,255,255,255
39500,2.568,-1.1711,9.4526,255,255,255
39750,2.5747,-1.1032,9.4072,255,255,255
40000,2.5814,-1.0354,9.3614,255,255,255
40250,2.5882,-0.9679,9.3153,255,255,255
40500,2.595,-0.9011,9.2688,255,255,255
40750,2.6018,-0.8353,9.2219,255,255,255
41000,2.6086,-0.7706,9.1748,255,255,255
41250,2.6154,-0.7074,9.1274,255,255,255
41500,2.6223,-0.6458,9.0798,255,255,255
41750,2.6292,-0.5863,9.0319,255,255,255
42000,2.6361,-0.529,8.9839,255,255,255
42250,2.643,-0.4743,8.9358,255,255,255
42500,2.6499,-0.4223,8.8875,255,255,255
42750,2.6569,-0.3733,8.8391,255,255,255
43000,2.6638,-0.3277,8.7906,255,255,255
43250,2.6708,-0.2857,8.7421,255,255,255
43500,2.678,-0.2476,8.6938,255,255,255
43750,2.6854,-0.2136,8.6461,255,255,255
44000,2.6932,-0.1836,8.5989,255,255,255
44250,2.7013,-0.1573,8.5525,255,255,255
44500,2.7096,-0.1346,8.5069,255,255,255
44750,2.718,-0.1152,8.462,255,255,255
45000,2.7267,-0.0989,8.4181,255,255,255
45250,2.7354,-0.0857,8.3752,255,255,255
45500,2.7442,-0.0752,8.3333,255,255,255
45750,2.7531,-0.0672,8.2925,255,255,255
46000,2.762,-0.0617,8.2529,255,255,255
46250,2.7708,-0.0583,8.2145,255,255,255
46500,2.7795,-0.0569,8.1775,255,255,255
46750,2.7881,-0.0573,8.1418,255,255,255
47000,2.7966,-0.0593,8.1076,255,255,255
47250,2.8048,-0.0627,8.0749,255,255,255
47500,2.8129,-0.0673,8.0438,255,255,255
47750,2.8206,-0.073,8.0143,255,255,255
48000,2.828,-0.0794,7.9866,255,255,255
48250,2.8351,-0.0865,7.9606,255,255,255
48500,2.8417,-0.094,7.9366,255,255,255
48750,2.848,-0.1017,7.9144,255,255,255
49000,2.8537,-0.1095,7.8942,255,255,255
49250,2.859,-0.1172,7.8762,255,255,255
49500,2.8637,-0.1245,7.8602,255,255,255
49750,2.8678,-0.1312,7.8464,255,255,255
50000,2.8712,-0.1372,7.8349,255,255,255
50250,2.874,-0.1423,7.8258,255,255,255
50500,2.8761,-0.1462,7.819,255,255,255
50750,2.8774,-0.1489,7.8148,255,255,255
51000,2.878,-0.15,7.813,255,255,255
51250,2.878,-0.15,7.813,255,255,255
51500,2.878,-0.15,7.813,255,255,255
51750,2.878,-0.15,7.813,255,255,255
52000,2.878,-0.15,7.813,255,255,255
52250,2.878,-0.15,7.813,255,255,255
52500,2.878,-0.15,7.813,255,255,255
52750,2.878,-0.15,7.813,255,255,255
53000,2.878,-0.15,7.813,255,255,255
53250,2.878,-0.15,7.813,255,255,255
53500,2.878,-0.15,7.813,255,255,255
53750,2.878,-0.15,7.813,255,255,255
54000,2.878,-0.15,7.813,255,255,255
54250,2.8631,-0.107,7.8953,255,255,255
54500,2.8287,-0.0072,8.1439,255,255,255
54750,2.8145,0.0338,8.4413,255,255,255
55000,2.8613,-0.1016,8.666,255,255,255
55250,2.9683,-0.4112,8.7824,255,255,255
55500,3.0768,-0.7252,8.8959,255,255,255
55750,3.2248,-1.1524,8.9766,255,255,255
56000,3.3808,-1.6024,9.0506,255,255,255
56250,3.5852,-2.1925,9.1473,255,255,255
56500,3.882,-3.0502,9.2876,255,255,255
56750,4.1923,-3.9471,9.4344,255,255,255
57000,4.4709,-4.7523,9.5664,255,255,255
57250,4.7484,-5.5543,9.6979,255,255,255
57500,5.0259,-6.3563,9.8294,255,255,255
57750,5.3034,-7.1583,9.9609,255,255,255
58000,5.5809,-7.9603,10.0924,255,255,255
58250,5.8584,-8.7623,10.2239,255,255,255
58500,6.1359,-9.5643,10.3554,255,255,255
58750,6.4385,-10.4335,10.4973,255,255,255
59000,6.7536,-11.344,10.6463,255,255,255
59250,6.9913,-12.0307,10.7588,255,255,255
59500,7.1318,-12.4366,10.8255,255,255,255
59750,7.2698,-12.8351,10.891,255,255,255
60000,7.3791,-13.1508,10.8908,255,255,255
60250,7.4826,-13.4498,10.8773,255,255,255
60500,7.554,-13.656,10.7847,255,255,255
60750,7.5557,-13.6609,10.5293,255,255,255
61000,7.525,-13.5722,10.2194,255,255,255
61250,7.5007,-13.502,9.9669,255,255,255
61500,7.5,-13.5,9.8116,255,255,255
61750,7.5,-13.5,9.6688,255,255,255
62000,7.5,-13.5,9.5346,255,255,255
62250,7.5,-13.5,9.4075,255,255,255
62500,7.5,-13.5,9.2857,255,255,255
62750,7.5,-13.5,9.1679,255,255,255
63000,7.5,-13.5,9.0524,255,255,255
63250,7.5,-13.5,8.9377,255,255,255
63500,7.5,-13.5,8.8223,255,255,255
63750,7.5,-13.5,8.7045,255,255,255
64000,7.5,-13.5,8.5829,255,255,255
64250,7.5,-13.5,8.458,255,255,255
64500,7.5,-13.5,8.333,255,255,255
64750,7.5,-13.5,8.208,255,255,255
65000,7.5,-13.5,8.083,255,255,255
65250,7.5,-13.5,7.958,255,255,255
65500,7.5,-13.5,7.833,255,255,255
65750,7.5,-13.5,7.708,255,255,255
66000,7.5,-13.5,7.583,255,255,255
66250,7.5,-13.5,7.458,255,255,255
66500,7.5,-13.5,7.333,255,255,255
66750,7.5,-13.5,7.208,255,255,255
67000,7.5,-13.5,7.083,255,255,255
67250,7.5,-13.5,6.958,255,255,255
67500,7.5,-13.5,6.833,255,255,255
67750,7.5,-13.5,6.708,255,255,255
68000,7.5,-13.5,6.583,255,255,255
68250,7.5,-13.5,6.458,255,255,255
68500,7.5,-13.5,6.333,255,255,255
68750,7.5,-13.5,6.208,255,255,255
69000,7.5,-13.5,6.083,255,255,255
69250,7.5,-13.5,5.958,255,255,255
69500,7.5,-13.5,5.833,255,255,255
69750,7.5,-13.5,5.708,255,255,255
70000,7.5,-13.5,5.583,255,255,255
70250,7.5,-13.5,5.458,255,255,255
70500,7.5,-13.5,5.333,255,255,255
70750,7.5,-13.5,5.208,255,255,255
71000,7.5,-13.5,5.083,255,255,255
71250,7.5,-13.5,4.958,255,255,255
71500,7.5,-13.5,4.833,255,255,255
71750,7.5,-13.5,4.708,255,255,255
72000,7.5,-13.5,4.584,255,255,255
72250,7.5,-13.5,4.459,255,255,255
72500,7.5,-13.5,4.334,255,255,255
72750,7.5,-13.5,4.209,255,255,255
73000,7.5,-13.5,4.084,255,255,255
73250,7.5,-13.5,3.959,255,255,255
73500,7.5,-13.5,3.834,255,255,255
73750,7.5,-13.5,3.709,255,255,255
74000,7.5,-13.5,3.584,255,255,255
74250,7.5,-13.5,3.459,255,255,255
74500,7.5,-13.5,3.334,255,255,255
74750,7.5,-13.5,3.209,255,255,255
75000,7.5,-13.5,3.084,255,255,255
75250,7.5,-13.5,2.959,255,255,255
75500,7.5,-13.5,2.834,255,255,255
75750,7.5,-13.5,2.709,255,255,255
76000,7.5,-13.5,2.584,255,255,255
76250,7.5,-13.5,2.459,255,255,255
76500,7.5,-13.5,2.334,255,255,255
76750,7.5,-13.5,2.209,255,255,255
77000,7.5,-13.5,2.084,255,255,255
77250,7.5,-13.5,1.959,255,255,255
77500,7.5,-13.5,1.834,255,255,255
77750,7.5,-13.5,1.709,255,255,255
78000,7.5,-13.5,1.584,255,255,255
78250,7.5,-13.5,1.458,255,255,255
78500,7.5,-13.5,1.333,255,255,255
78750,7.5,-13.5,1.208,255,255,255
79000,7.5,-13.5,1.083,255,255,255
79250,7.5,-13.5,0.958,255,255,255
79500,7.5,-13.5,0.833,255,255,255
79750,7.5,-13.5,0.708,255,255,255
80000,7.5,-13.5,0.583,255,255,255
80250,7.5,-13.5,0.4482,255,255,255
80500,7.5,-13.5,0.299,255,255,255
80750,7.5,-13.5,0.1588,255,255,255
81000,7.5,-13.5,0.0515,255,255,255
81250,7.5,-13.5,0.0012,255,255,255
81500,7.5,-13.5,0,255,255,255
81750,7.5,-13.5,0,255,255,255
82000,7.5,-13.5,0,255,255,255
82250,7.5,-13.5,0,255,255,255
82500,7.5,-13.5,0,255,255,255
82750,7.5,-13.5,0,255,255,255
83000,7.5,-13.5,0,255,255,255
83250,7.5,-13.5,0,255,255,255
83500,7.5,-13.5,0,255,255,255
83750,7.5,-13.5,0,255,255,255
84000,7.5,-13.5,0,255,255,255
84250,7.5,-13.5,0,255,255,255
84500,7.5,-13.5,0,255,255,255
84750,7.5,-13.5,0,255,255,255
85000,7.5,-13.5,0,255,255,255
85250,7.5,-13.5,0,255,255,255
85500,7.5,-13.5,0,255,255,255
85750,7.5,-13.5,0,255,255,255
86000,7.5,-13.5,0,255,255,255
86250,7.5,-13.5,0,255,255,255
86500,7.5,-13.5,0,255,255,255
86750,7.5,-13.5,0,255,255,255
87000,7.5,-13.5,0,255,255,255
87250,7.5,-13.5,0,255,255,255
87500,7.5,-13.5,0,255,255,255
87750,7.5,-13.5,0,255,255,255
88000,7.5,-13.5,0,255,255,255
88250,7.5,-13.5,0,255,255,255
88500,7.5,-13.5,0,255,255,255
88750,7.5,-13.5,0,255,255,255
89000,7.5,-13.5,0,255,255,255
89250,7.5,-13.5,0,255,255,255
89500,7.5,-13.5,0,255,255,255
89750,7.5,-13.5,0,255,255,255
90000,7.5,-13.5,0,255,255,255
90250,7.5,-13.5,0,255,255,255
90500,7.5,-13.5,0,255,255,255
90750,7.5,-13.5,0,255,255,255
91000,7.5,-13.5,0,255,255,255
91250,7.5,-13.5,0,255,255,255
91500,7.5,-13.5,0,255,255,255
91750,7.5,-13.5,0,255,255,255
92000,7.5,-13.5,0,255,255,255
92250,7.5,-13.5,0,255,255,255
92500,7.5,-13.5,0,255,255,255
92750,7.5,-13.5,0,255,255,255
93000,7.5,-13.5,0,255,255,255
93250,7.5,-13.5,0,255,255,255
93500,7.5,-13.5,0,255,255,255
93750,7.5,-13.5,0,255,255,255
94000,7.5,-13.5,0,255,255,255
94250,7.5,-13.5,0,255,255,255
94500,7.5,-13.5,0,255,255,255
94750,7.5,-13.5,0,255,255,255
95000,7.5,-13.5,0,255,255,255
95250,7.5,-13.5,0,255,255,255
95500,7.5,-13.5,0,255,255,255
95750,7.5,-13.5,0,255,255,255
96000,7.5,-13.5,0,255,255,255
96250,7.5,-13.5,0,255,255,255
96500,7.5,-13.5,0,255,255,255
96750,7.5,-13.5,0,255,255,255
97000,7.5,-13.5,0,255,255,255
97250,7.5,-13.5,0,255,255,255
97500,7.5,-13.5,0,255,255,255
97750,7.5,-13.5,0,255,255,255
98000,7.5,-13.5,0,255,255,255
98250,7.5,-13.5,0,255,255,255
98500,7.5,-13.5,0,255,255,255
98750,7.5,-13.5,0,255,255,255
99000,7.5,-13.5,0,255,255,255
99250,7.5,-13.5,0,255,255,255
99500,7.5,-13.5,0,255,255,255
99750,7.5,-13.5,0,255,255,255
100000,7.5,-13.5,0,255,255,255
100250,7.5,-13.5,0,255,255,255
100500,7.5,-13.5,0,255,255,255
100750,7.5,-13.5,0,255,255,255
101000,7.5,-13.5,0,255,255,255
101250,7.5,-13.5,0,255,255,255
101500,7.5,-13.5,0,255,255,255
101750,7.5,-13.5,0,255,255,255
102000,7.5,-13.5,0,255,255,255
102250,7.5,-13.5,0,255,255,255
102500,7.5,-13.5,0,255,255,255
102750,7.5,-13.5,0,255,255,255
103000,7.5,-13.5,0,255,255,255
103250,7.5,-13.5,0,255,255,255
103500,7.5,-13.5,0,255,255,255
103750,7.5,-13.5,0,255,255,255
104000,7.5,-13.5,0,255,255,255
