Time [msec],x [m],y [m],z [m],Red,Green,Blue
0,-1.5,-10.5,0,255,255,255
250,-1.4998,-10.4926,0.0193,255,255,255
500,-1.4989,-10.4649,0.092,255,255,255
750,-1.4974,-10.4179,0.2155,255,255,255
1000,-1.4954,-10.3526,0.3868,255,255,255
1250,-1.4928,-10.2704,0.6026,255,255,255
1500,-1.4898,-10.1725,0.8597,255,255,255
1750,-1.4863,-10.0601,1.155,255,255,255
2000,-1.4824,-9.9344,1.4852,255,255,255
2250,-1.4782,-9.7967,1.8471,255,255,255
2500,-1.4736,-9.6481,2.2376,255,255,255
2750,-1.4688,-9.49,2.6535,255,255,255
3000,-1.4637,-9.3235,3.0915,255,255,255
3250,-1.4584,-9.1499,3.5485,255,255,255
3500,-1.453,-8.9704,4.0213,255,255,255
3750,-1.4474,-8.7862,4.5067,255,255,255
4000,-1.4418,-8.5985,5.0015,255,255,255
4250,-1.4362,-8.4086,5.5025,255,255,255
4500,-1.4305,-8.2176,6.0064,255,255,255
4750,-1.4249,-8.0269,6.5102,255,255,255
5000,-1.4194,-7.8377,7.0107,255,255,255
5250,-1.414,-7.6511,7.5045,255,255,255
5500,-1.4088,-7.4684,7.9886,255,255,255
5750,-1.4037,-7.2908,8.4597,255,255,255
6000,-1.399,-7.1196,8.9147,255,255,255
6250,-1.3945,-6.9559,9.3503,255,255,255
6500,-1.3904,-6.8011,9.7633,255,255,255
6750,-1.3866,-6.6563,10.1507,255,255,255
7000,-1.3831,-6.5195,10.5171,255,255,255
7250,-1.3798,-6.3857,10.8759,255,255,255
7500,-1.3766,-6.2545,11.2273,255,255,255
7750,-1.3735,-6.1262,11.5712,255,255,255
8000,-1.3706,-6.0008,11.9076,255,255,255
8250,-1.3677,-5.8782,12.2362,255,255,255
8500,-1.365,-5.7586,12.5571,255,255,255
8750,-1.3624,-5.6419,12.8701,255,255,255
9000,-1.3599,-5.5283,13.1751,255,255,255
9250,-1.3575,-5.4177,13.4721,255,255,255
9500,-1.3552,-5.3102,13.7609,255,255,255
9750,-1.353,-5.2059,14.0414,255,255,255
10000,-1.3509,-5.1048,14.3136,255,255,255
10250,-1.3489,-5.0069,14.5774,255,255,255
10500,-1.347,-4.9122,14.8325,255,255,255
10750,-1.3452,-4.8209,15.0791,255,255,255
11000,-1.3434,-4.7329,15.3169,255,255,255
11250,-1.3418,-4.6484,15.5458,255,255,255
11500,-1.3402,-4.5673,15.7658,255,255,255
11750,-1.3387,-4.4896,15.9768,255,255,255
12000,-1.3373,-4.4155,16.1787,255,255,255
12250,-1.3359,-4.345,16.3713,255,255,255
12500,-1.3347,-4.2781,16.5546,255,255,255
12750,-1.3335,-4.2148,16.7285,255,255,255
13000,-1.3323,-4.1552,16.8928,255,255,255
13250,-1.3312,-4.0994,17.0476,255,255,255
13500,-1.3302,-4.0474,17.1926,255,255,255
13750,-1.3292,-3.999,17.3282,255,255,255
14000,-1.3284,-3.9538,17.455,255,255,255
14250,-1.3276,-3.9119,17.5732,255,255,255
14500,-1.327,-3.873,17.6833,255,255,255
14750,-1.3265,-3.8372,17.7853,255,255,255
15000,-1.3261,-3.8043,17.8795,255,255,255
15250,-1.3259,-3.7742,17.9662,255,255,255
15500,-1.3257,-3.7469,18.0457,255,255,255
15750,-1.3257,-3.7223,18.1181,255,255,255
16000,-1.3258,-3.7004,18.1837,255,255,255
16250,-1.326,-3.6809,18.2428,255,255,255
16500,-1.3263,-3.6638,18.2955,255,255,255
16750,-1.3267,-3.6492,18.3423,255,255,255
17000,-1.3273,-3.6367,18.3832,255,255,255
17250,-1.328,-3.6265,18.4186,255,255,255
17500,-1.3288,-3.6184,18.4486,255,255,255
17750,-1.3297,-3.6123,18.4736,255,255,255
18000,-1.3307,-3.6082,18.4937,255,255,255
18250,-1.3319,-3.6059,18.5093,255,255,255
18500,-1.3332,-3.6054,18.5206,255,255,255
18750,-1.3346,-3.6065,18.5277,255,255,255
19000,-1.3361,-3.6093,18.5311,255,255,255
19250,-1.3377,-3.6136,18.5308,255,255,255
19500,-1.3395,-3.6194,18.5272,255,255,255
19750,-1.3414,-3.6265,18.5204,255,255,255
20000,-1.3434,-3.6349,18.5109,255,255,255
20250,-1.3455,-3.6445,18.4987,255,255,255
20500,-1.3478,-3.6552,18.4841,255,255,255
20750,-1.3502,-3.6669,18.4674,255,255,255
21000,-1.3527,-3.6796,18.4489,255,255,255
21250,-1.3553,-3.6932,18.4287,255,255,255
21500,-1.3581,-3.7075,18.4071,255,255,255
21750,-1.3609,-3.7225,18.3844,255,255,255
22000,-1.3639,-3.7382,18.3608,255,255,255
22250,-1.3671,-3.7544,18.3366,255,255,255
22500,-1.3703,-3.771,18.312,255,255,255
22750,-1.3737,-3.788,18.2872,255,255,255
23000,-1.3772,-3.8053,18.2625,255,255,255
23250,-1.3808,-3.8228,18.2381,255,255,255
23500,-1.3846,-3.8404,18.2143,255,255,255
23750,-1.3885,-3.858,18.1914,255,255,255
24000,-1.3925,-3.8756,18.1695,255,255,255
24250,-1.3966,-3.8931,18.1489,255,255,255
24500,-1.4009,-3.9103,18.1299,255,255,255
24750,-1.4053,-3.9273,18.1127,255,255,255
25000,-1.4098,-3.9439,18.0976,255,255,255
25250,-1.4145,-3.96,18.0847,255,255,255
25500,-1.4192,-3.9756,18.0745,255,255,255
25750,-1.4242,-3.9906,18.067,255,255,255
26000,-1.4292,-4.005,18.0617,255,255,255
26250,-1.4342,-4.0191,18.0574,255,255,255
26500,-1.4392,-4.0329,18.0538,255,255,255
26750,-1.4443,-4.0465,18.0509,255,255,255
27000,-1.4494,-4.0599,18.0486,255,255,255
27250,-1.4544,-4.0731,18.047,255,255,255
27500,-1.4595,-4.0861,18.0458,255,255,255
27750,-1.4646,-4.0989,18.0452,255,255,255
28000,-1.4698,-4.1116,18.0449,255,255,255
28250,-1.4749,-4.1242,18.0449,255,255,255
28500,-1.48,-4.1367,18.0452,255,255,255
28750,-1.4852,-4.1491,18.0458,255,255,255
29000,-1.4903,-4.1614,18.0464,255,255,255
29250,-1.4955,-4.1738,18.0471,255,255,255
29500,-1.5006,-4.1861,18.0479,255,255,255
29750,-1.5058,-4.1984,18.0485,255,255,255
30000,-1.511,-4.2108,18.0491,255,255,255
30250,-1.5162,-4.2232,18.0495,255,255,255
30500,-1.5214,-4.2357,18.0496,255,255,255
30750,-1.5265,-4.2483,18.0494,255,255,255
31000,-1.5317,-4.261,18.0489,255,255,255
31250,-1.5369,-4.2739,18.0479,255,255,255
31500,-1.5421,-4.2869,18.0464,255,255,255
31750,-1.5473,-4.3001,18.0444,255,255,255
32000,-1.5524,-4.3136,18.0417,255,255,255
32250,-1.5576,-4.3272,18.0384,255,255,255
32500,-1.5628,-4.3411,18.0343,255,255,255
32750,-1.5679,-4.3552,18.0293,255,255,255
33000,-1.5731,-4.3697,18.0235,255,255,255
33250,-1.5782,-4.3845,18.0167,255,255,255
33500,-1.5834,-4.3996,18.009,255,255,255
33750,-1.5885,-4.415,18.0001,255,255,255
34000,-1.5936,-4.4308,17.9902,255,255,255
34250,-1.5988,-4.4471,17.979,255,255,255
34500,-1.6039,-4.4637,17.9665,255,255,255
34750,-1.6089,-4.4808,17.9528,255,255,255
35000,-1.614,-4.4984,17.9376,255,255,255
35250,-1.6191,-4.5164,17.921,255,255,255
35500,-1.6241,-4.535,17.9028,255,255,255
35750,-1.6291,-4.554,17.8831,255,255,255
36000,-1.6342,-4.5736,17.8618,255,255,255
36250,-1.6392,-4.5937,17.8388,255,255,255
36500,-1.6442,-4.6137,17.8146,255,255,255
36750,-1.6492,-4.6338,17.7892,255,255,255
37000,-1.6543,-4.654,17.7627,255,255,255
37250,-1.6594,-4.6741,17.7351,255,255,255
37500,-1.6645,-4.6944,17.7065,255,255,255
37750,-1.6696,-4.7146,17.6771,255,255,255
38000,-1.6748,-4.7349,17.6469,255,255,255
38250,-1.6799,-4.7552,17.6159,255,255,255
38500,-1.6851,-4.7756,17.5843,255,255,255
38750,-1.6902,-4.796,17.5521,255,255,255
39000,-1.6954,-4.8164,17.5195,255,255,255
39250,-1.7006,-4.8368,17.4864,255,255,255
39500,-1.7058,-4.8573,17.4529,255,255,255
39750,-1.711,-4.8778,17.4193,255,255,255
40000,-1.7162,-4.8983,17.3854,255,255,255
40250,-1.7214,-4.9188,17.3514,255,255,255
40500,-1.7266,-4.9393,17.3175,255,255,255
40750,-1.7318,-4.9598,17.2835,255,255,255
41000,-1.737,-4.9804,17.2497,255,255,255
41250,-1.7422,-5.001,17.2162,255,255,255
41500,-1.7474,-5.0216,17.1829,255,255,255
41750,-1.7526,-5.0421,17.1499,255,255,255
42000,-1.7578,-5.0627,17.1175,255,255,255
42250,-1.763,-5.0833,17.0855,255,255,255
42500,-1.7682,-5.1039,17.0542,255,255,255
42750,-1.7734,-5.1245,17.0235,255,255,255
43000,-1.7785,-5.1451,16.9937,255,255,255
43250,-1.7836,-5.1657,16.9646,255,255,255
43500,-1.7888,-5.1863,16.9365,255,255,255
43750,-1.7939,-5.2069,16.9093,255,255,255
44000,-1.799,-5.2274,16.8833,255,255,255
44250,-1.8041,-5.248,16.8584,255,255,255
44500,-1.8091,-5.2685,16.8347,255,255,255
44750,-1.8141,-5.289,16.8123,255,255,255
45000,-1.8192,-5.3096,16.7914,255,255,255
45250,-1.8243,-5.3306,16.7718,255,255,255
45500,-1.8298,-5.3529,16.7534,255,255,255
45750,-1.8356,-5.3765,16.7362,255,255,255
46000,-1.8417,-5.401,16.7202,255,255,255
46250,-1.848,-5.4263,16.7053,255,255,255
46500,-1.8545,-5.4522,16.6915,255,255,255
46750,-1.8611,-5.4784,16.6787,255,255,255
47000,-1.8678,-5.5049,16.6669,255,255,255
47250,-1.8744,-5.5313,16.6561,255,255,255
47500,-1.881,-5.5574,16.6463,255,255,255
47750,-1.8876,-5.5832,16.6373,255,255,255
48000,-1.8939,-5.6084,16.6293,255,255,255
48250,-1.9001,-5.6327,16.622,255,255,255
48500,-1.906,-5.656,16.6156,255,255,255
48750,-1.9117,-5.6781,16.61,255,255,255
49000,-1.9169,-5.6987,16.6051,255,255,255
49250,-1.9218,-5.7178,16.6008,255,255,255
49500,-1.9262,-5.735,16.5973,255,255,255
49750,-1.9301,-5.7502,16.5944,255,255,255
50000,-1.9334,-5.7632,16.592,255,255,255
50250,-1.9361,-5.7737,16.5903,255,255,255
50500,-1.9381,-5.7817,16.589,255,255,255
50750,-1.9394,-5.7868,16.5883,255,255,255
51000,-1.94,-5.789,16.588,255,255,255
51250,-1.94,-5.789,16.588,255,255,255
51500,-1.94,-5.789,16.588,255,255,255
51750,-1.94,-5.789,16.588,255,255,255
52000,-1.94,-5.789,16.588,255,255,255
52250,-1.94,-5.789,16.588,255,255,255
52500,-1.94,-5.789,16.588,255,255,255
52750,-1.94,-5.789,16.588,255,255,255
53000,-1.94,-5.789,16.588,255,255,255
53250,-1.94,-5.789,16.588,255,255,255
53500,-1.94,-5.789,16.588,255,255,255
53750,-1.94,-5.789,16.588,255,255,255
54000,-1.94,-5.789,16.588,255,255,255
54250,-1.9408,-5.7806,16.5295,255,255,255
54500,-1.9427,-5.7609,16.3377,255,255,255
54750,-1.9436,-5.7516,16.069,255,255,255
55000,-1.9413,-5.7751,15.7826,255,255,255
55250,-1.9339,-5.8538,15.5378,255,255,255
55500,-1.9186,-6.0163,15.33,255,255,255
55750,-1.895,-6.2683,15.0747,255,255,255
56000,-1.8657,-6.5813,14.7825,255,255,255
56250,-1.8336,-6.9265,14.4666,255,255,255
56500,-1.8012,-7.2751,14.14,255,255,255
56750,-1.7698,-7.6151,13.8095,255,255,255
57000,-1.7375,-7.9622,13.4715,255,255,255
57250,-1.7048,-8.313,13.1299,255,255,255
57500,-1.672,-8.6631,12.7889,255,255,255
57750,-1.6396,-9.0082,12.4527,255,255,255
58000,-1.6081,-9.3442,12.1254,255,255,255
58250,-1.578,-9.6668,11.8111,255,255,255
58500,-1.5496,-9.9718,11.5139,255,255,255
58750,-1.5254,-10.231,11.2693,255,255,255
59000,-1.5092,-10.4025,11.0935,255,255,255
59250,-1.5007,-10.4924,10.9116,255,255,255
59500,-1.4985,-10.5169,10.6724,255,255,255
59750,-1.499,-10.5108,10.4101,255,255,255
60000,-1.5,-10.5003,10.1625,255,255,255
60250,-1.5,-10.5,9.9624,255,255,255
60500,-1.5,-10.5,9.8084,255,255,255
60750,-1.5,-10.5,9.6841,255,255,255
61000,-1.5,-10.5,9.573,255,255,255
61250,-1.5,-10.5,9.4587,255,255,255
61500,-1.5,-10.5,9.334,255,255,255
61750,-1.5,-10.5,9.209,255,255,255
62000,-1.5,-10.5,9.084,255,255,255
62250,-1.5,-10.5,8.959,255,255,255
62500,-1.5,-10.5,8.834,255,255,255
62750,-1.5,-10.5,8.709,255,255,255
63000,-1.5,-10.5,8.584,255,255,255
63250,-1.5,-10.5,8.459,255,255,255
63500,-1.5,-10.5,8.334,255,255,255
63750,-1.5,-10.5,8.209,255,255,255
64000,-1.5,-10.5,8.084,255,255,255
64250,-1.5,-10.5,7.959,255,255,255
64500,-1.5,-10.5,7.834,255,255,255
64750,-1.5,-10.5,7.709,255,255,255
65000,-1.5,-10.5,7.584,255,255,255
65250,-1.5,-10.5,7.459,255,255,255
65500,-1.5,-10.5,7.334,255,255,255
65750,-1.5,-10.5,7.209,255,255,255
66000,-1.5,-10.5,7.084,255,255,255
66250,-1.5,-10.5,6.959,255,255,255
66500,-1.5,-10.5,6.834,255,255,255
66750,-1.5,-10.5,6.709,255,255,255
67000,-1.5,-10.5,6.584,255,255,255
67250,-1.5,-10.5,6.459,255,255,255
67500,-1.5,-10.5,6.334,255,255,255
67750,-1.5,-10.5,6.209,255,255,255
68000,-1.5,-10.5,6.084,255,255,255
68250,-1.5,-10.5,5.959,255,255,255
68500,-1.5,-10.5,5.834,255,255,255
68750,-1.5,-10.5,5.709,255,255,255
69000,-1.5,-10.5,5.584,255,255,255
69250,-1.5,-10.5,5.459,255,255,255
69500,-1.5,-10.5,5.334,255,255,255
69750,-1.5,-10.5,5.209,255,255,255
70000,-1.5,-10.5,5.084,255,255,255
70250,-1.5,-10.5,4.959,255,255,255
70500,-1.5,-10.5,4.834,255,255,255
70750,-1.5,-10.5,4.709,255,255,255
71000,-1.5,-10.5,4.584,255,255,255
71250,-1.5,-10.5,4.459,255,255,255
71500,-1.5,-10.5,4.334,255,255,255
71750,-1.5,-10.5,4.209,255,255,255
72000,-1.5,-10.5,4.084,255,255,255
72250,-1.5,-10.5,3.959,255,255,255
72500,-1.5,-10.5,3.834,255,255,255
72750,-1.5,-10.5,3.709,255,255,255
73000,-1.5,-10.5,3.584,255,255,255
73250,-1.5,-10.5,3.459,255,255,255
73500,-1.5,-10.5,3.334,255,255,255
73750,-1.5,-10.5,3.209,255,255,255
74000,-1.5,-10.5,3.084,255,255,255
74250,-1.5,-10.5,2.959,255,255,255
74500,-1.5,-10.5,2.834,255,255,255
74750,-1.5,-10.5,2.709,255,255,255
75000,-1.5,-10.5,2.584,255,255,255
75250,-1.5,-10.5,2.459,255,255,255
75500,-1.5,-10.5,2.334,255,255,255
75750,-1.5,-10.5,2.209,255,255,255
76000,-1.5,-10.5,2.084,255,255,255
76250,-1.5,-10.5,1.959,255,255,255
76500,-1.5,-10.5,1.834,255,255,255
76750,-1.5,-10.5,1.709,255,255,255
77000,-1.5,-10.5,1.584,255,255,255
77250,-1.5,-10.5,1.458,255,255,255
77500,-1.5,-10.5,1.333,255,255,255
77750,-1.5,-10.5,1.208,255,255,255
78000,-1.5,-10.5,1.083,255,255,255
78250,-1.5,-10.5,0.958,255,255,255
78500,-1.5,-10.5,0.833,255,255,255
78750,-1.5,-10.5,0.708,255,255,255
79000,-1.5,-10.5,0.583,255,255,255
79250,-1.5,-10.5,0.4482,255,255,255
79500,-1.5,-10.5,0.299,255,255,255
79750,-1.5,-10.5,0.1588,255,255,255
80000,-1.5,-10.5,0.0515,255,255,255
80250,-1.5,-10.5,0.0012,255,255,255
80500,-1.5,-10.5,0,255,255,255
80750,-1.5,-10.5,0,255,255,255
81000,-1.5,-10.5,0,255,255,255
81250,-1.5,-10.5,0,255,255,255
81500,-1.5,-10.5,0,255,255,255
81750,-1.5,-10.5,0,255,255,255
82000,-1.5,-10.5,0,255,255,255
82250,-1.5,-10.5,0,255,255,255
82500,-1.5,-10.5,0,255,255,255
82750,-1.5,-10.5,0,255,255,255
83000,-1.5,-10.5,0,255,255,255
83250,-1.5,-10.5,0,255,255,255
83500,-1.5,-10.5,0,255,255,255
83750,-1.5,-10.5,0,255,255,255
84000,-1.5,-10.5,0,255,255,255
84250,-1.5,-10.5,0,255,255,255
84500,-1.5,-10.5,0,255,255,255
84750,-1.5,-10.5,0,255,255,255
85000,-1.5,-10.5,0,255,255,255
85250,-1.5,-10.5,0,255,255,255
85500,-1.5,-10.5,0,255,255,255
85750,-1.5,-10.5,0,255,255,255
86000,-1.5,-10.5,0,255,255,255
86250,-1.5,-10.5,0,255,255,255
86500,-1.5,-10.5,0,255,255,255
86750,-1.5,-10.5,0,255,255,255
87000,-1.5,-10.5,0,255,255,255
87250,-1.5,-10.5,0,255,255,255
87500,-1.5,-10.5,0,255,255,255
87750,-1.5,-10.5,0,255,255,255
88000,-1.5,-10.5,0,255,255,255
88250,-1.5,-10.5,0,255,255,255
88500,-1.5,-10.5,0,255,255,255
88750,-1.5,-10.5,0,255,255,255
89000,-1.5,-10.5,0,255,255,255
89250,-1.5,-10.5,0,255,255,255
89500,-1.5,-10.5,0,255,255,255
89750,-1.5,-10.5,0,255,255,255
90000,-1.5,-10.5,0,255,255,255
90250,-1.5,-10.5,0,255,255,255
90500,-1.5,-10.5,0,255,255,255
90750,-1.5,-10.5,0,255,255,255
91000,-1.5,-10.5,0,255,255,255
91250,-1.5,-10.5,0,255,255,255
91500,-1.5,-10.5,0,255,255,255
91750,-1.5,-10.5,0,255,255,255
92000,-1.5,-10.5,0,255,255,255
92250,-1.5,-10.5,0,255,255,255
92500,-1.5,-10.5,0,255,255,255
92750,-1.5,-10.5,0,255,255,255
93000,-1.5,-10.5,0,255,255,255
93250,-1.5,-10.5,0,255,255,255
93500,-1.5,-10.5,0,255,255,255
93750,-1.5,-10.5,0,255,255,255
94000,-1.5,-10.5,0,255,255,255
94250,-1.5,-10.5,0,255,255,255
94500,-1.5,-10.5,0,255,255,255
94750,-1.5,-10.5,0,255,255,255
95000,-1.5,-10.5,0,255,255,255
95250,-1.5,-10.5,0,255,255,255
95500,-1.5,-10.5,0,255,255,255
95750,-1.5,-10.5,0,255,255,255
96000,-1.5,-10.5,0,255,255,255
96250,-1.5,-10.5,0,255,255,255
96500,-1.5,-10.5,0,255,255,255
96750,-1.5,-10.5,0,255,255,255
97000,-1.5,-10.5,0,255,255,255
97250,-1.5,-10.5,0,255,255,255
97500,-1.5,-10.5,0,255,255,255
97750,-1.5,-10.5,0,255,255,255
98000,-1.5,-10.5,0,255,255,255
98250,-1.5,-10.5,0,255,255,255
98500,-1.5,-10.5,0,255,255,255
98750,-1.5,-10.5,0,255,255,255
99000,-1.5,-10.5,0,255,255,255
99250,-1.5,-10.5,0,255,255,255
99500,-1.5,-10.5,0,255,255,255
99750,-1.5,-10.5,0,255,255,255
100000,-1.5,-10.5,0,255,255,255
100250,-1.5,-10.5,0,255,255,255
100500,-1.5,-10.5,0,255,255,255
100750,-1.5,-10.5,0,255,255,255
101000,-1.5,-10.5,0,255,255,255
101250,-1.5,-10.5,0,255,255,255
101500,-1.5,-10.5,0,255,255,255
101750,-1.5,-10.5,0,255,255,255
102000,-1.5,-10.5,0,255,255,255
102250,-1.5,-10.5,0,255,255,255
102500,-1.5,-10.5,0,255,255,255
102750,-1.5,-10.5,0,255,255,255
103000,-1.5,-10.5,0,255,255,255
103250,-1.5,-10.5,0,255,255,255
103500,-1.5,-10.5,0,255,255,255
103750,-1.5,-10.5,0,255,255,255
104000,-1.5,-10.5,0,255,255,255
