Time [msec],x [m],y [m],z [m],Red,Green,Blue
0,-13.5,10.5,0,255,255,255
250,-13.4908,10.4934,0.0222,255,255,255
500,-13.4564,10.4688,0.1054,255,255,255
750,-13.3977,10.4268,0.247,255,255,255
1000,-13.3165,10.3687,0.4432,255,255,255
1250,-13.2141,10.2954,0.6904,255,255,255
1500,-13.0922,10.2081,0.9849,255,255,255
1750,-12.9521,10.1078,1.3231,255,255,255
2000,-12.7956,9.9957,1.7012,255,255,255
2250,-12.6239,9.8727,2.1156,255,255,255
2500,-12.4388,9.7401,2.5626,255,255,255
2750,-12.2417,9.5989,3.0386,255,255,255
3000,-12.034,9.4501,3.5399,255,255,255
3250,-11.8175,9.2948,4.0628,255,255,255
3500,-11.5935,9.1342,4.6036,255,255,255
3750,-11.3635,8.9693,5.1586,255,255,255
4000,-11.1292,8.8012,5.7243,255,255,255
4250,-10.892,8.631,6.2969,255,255,255
4500,-10.6534,8.4597,6.8727,255,255,255
4750,-10.4149,8.2885,7.4481,255,255,255
5000,-10.1782,8.1184,8.0194,255,255,255
5250,-9.9446,7.9505,8.5829,255,255,255
5500,-9.7158,7.7859,9.135,255,255,255
5750,-9.4931,7.6257,9.672,255,255,255
6000,-9.2783,7.4709,10.1902,255,255,255
6250,-9.0727,7.3227,10.6859,255,255,255
6500,-8.8779,7.1821,11.1555,255,255,255
6750,-8.6953,7.0502,11.5953,255,255,255
7000,-8.5228,6.9254,12.0112,255,255,255
7250,-8.3539,6.8031,12.4195,255,255,255
7500,-8.1885,6.6832,12.8202,255,255,255
7750,-8.0267,6.5657,13.2134,255,255,255
8000,-7.8684,6.4508,13.5989,255,255,255
8250,-7.7138,6.3383,13.9767,255,255,255
8500,-7.5629,6.2284,14.3466,255,255,255
8750,-7.4157,6.1211,14.7086,255,255,255
9000,-7.2723,6.0164,15.0626,255,255,255
9250,-7.1327,5.9144,15.4084,255,255,255
9500,-6.997,5.815,15.7459,255,255,255
9750,-6.8651,5.7183,16.0752,255,255,255
10000,-6.7373,5.6244,16.396,255,255,255
10250,-6.6135,5.5332,16.7082,255,255,255
10500,-6.4937,5.4449,17.0119,255,255,255
10750,-6.378,5.3594,17.3068,255,255,255
11000,-6.2664,5.2768,17.5929,255,255,255
11250,-6.1591,5.197,17.8701,255,255,255
11500,-6.0559,5.1202,18.1383,255,255,255
11750,-5.9571,5.0464,18.3973,255,255,255
12000,-5.8626,4.9756,18.6472,255,255,255
12250,-5.7724,4.9078,18.8878,255,255,255
12500,-5.6867,4.8431,19.1189,255,255,255
12750,-5.6054,4.7814,19.3406,255,255,255
13000,-5.5287,4.7229,19.5526,255,255,255
13250,-5.4565,4.6676,19.755,255,255,255
13500,-5.3889,4.6154,19.9476,255,255,255
13750,-5.3259,4.5664,20.1305,255,255,255
14000,-5.2674,4.5204,20.3039,255,255,255
14250,-5.2132,4.4773,20.4684,255,255,255
14500,-5.1632,4.437,20.624,255,255,255
14750,-5.1172,4.3994,20.771,255,255,255
15000,-5.0751,4.3644,20.9099,255,255,255
15250,-5.0369,4.3319,21.0408,255,255,255
15500,-5.0023,4.3019,21.1639,255,255,255
15750,-4.9711,4.2742,21.2797,255,255,255
16000,-4.9434,4.2488,21.3884,255,255,255
16250,-4.9189,4.2256,21.4901,255,255,255
16500,-4.8974,4.2044,21.5854,255,255,255
16750,-4.879,4.1852,21.6743,255,255,255
17000,-4.8634,4.1679,21.7572,255,255,255
17250,-4.8504,4.1524,21.8343,255,255,255
17500,-4.84,4.1387,21.906,255,255,255
17750,-4.832,4.1265,21.9725,255,255,255
18000,-4.8263,4.1159,22.034,255,255,255
18250,-4.8227,4.1067,22.091,255,255,255
18500,-4.8212,4.0989,22.1436,255,255,255
18750,-4.8215,4.0924,22.1921,255,255,255
19000,-4.8235,4.087,22.2368,255,255,255
19250,-4.8271,4.0827,22.2781,255,255,255
19500,-4.8322,4.0794,22.316,255,255,255
19750,-4.8386,4.077,22.351,255,255,255
20000,-4.8462,4.0754,22.3833,255,255,255
20250,-4.8549,4.0745,22.4132,255,255,255
20500,-4.8644,4.0742,22.441,255,255,255
20750,-4.8747,4.0745,22.4669,255,255,255
21000,-4.8857,4.0753,22.4913,255,255,255
21250,-4.8972,4.0764,22.5143,255,255,255
21500,-4.909,4.0778,22.5364,255,255,255
21750,-4.921,4.0794,22.5572,255,255,255
22000,-4.933,4.0814,22.576,255,255,255
22250,-4.9451,4.0837,22.5929,255,255,255
22500,-4.9572,4.0864,22.608,255,255,255
22750,-4.9693,4.0894,22.6212,255,255,255
23000,-4.9814,4.0928,22.6327,255,255,255
23250,-4.9936,4.0965,22.6426,255,255,255
23500,-5.0057,4.1005,22.6508,255,255,255
23750,-5.0179,4.1048,22.6575,255,255,255
24000,-5.0301,4.1094,22.6627,255,255,255
24250,-5.0423,4.1143,22.6665,255,255,255
24500,-5.0545,4.1194,22.669,255,255,255
24750,-5.0668,4.1248,22.6702,255,255,255
25000,-5.079,4.1305,22.6702,255,255,255
25250,-5.0913,4.1364,22.669,255,255,255
25500,-5.1035,4.1425,22.6667,255,255,255
25750,-5.1158,4.1489,22.6634,255,255,255
26000,-5.128,4.1555,22.6592,255,255,255
26250,-5.1403,4.1623,22.6541,255,255,255
26500,-5.1526,4.1693,22.6481,255,255,255
26750,-5.1648,4.1765,22.6414,255,255,255
27000,-5.1771,4.1838,22.634,255,255,255
27250,-5.1894,4.1914,22.626,255,255,255
27500,-5.2016,4.1991,22.6174,255,255,255
27750,-5.2139,4.2069,22.6083,255,255,255
28000,-5.2261,4.2149,22.5987,255,255,255
28250,-5.2384,4.223,22.5888,255,255,255
28500,-5.2506,4.2313,22.5786,255,255,255
28750,-5.2628,4.2396,22.5681,255,255,255
29000,-5.275,4.2481,22.5575,255,255,255
29250,-5.2872,4.2567,22.5467,255,255,255
29500,-5.2994,4.2653,22.5359,255,255,255
29750,-5.3115,4.274,22.5252,255,255,255
30000,-5.3236,4.2828,22.5145,255,255,255
30250,-5.3358,4.2917,22.5039,255,255,255
30500,-5.3479,4.3006,22.4936,255,255,255
30750,-5.3599,4.3095,22.4835,255,255,255
31000,-5.372,4.3185,22.4738,255,255,255
31250,-5.384,4.3275,22.4645,255,255,255
31500,-5.396,4.3364,22.456,255,255,255
31750,-5.4081,4.3451,22.4488,255,255,255
32000,-5.4202,4.3533,22.4429,255,255,255
32250,-5.4323,4.3612,22.4384,255,255,255
32500,-5.4445,4.3686,22.4352,255,255,255
32750,-5.4567,4.3753,22.4333,255,255,255
33000,-5.4689,4.3815,22.4328,255,255,255
33250,-5.4811,4.3869,22.4335,255,255,255
33500,-5.4934,4.3914,22.4356,255,255,255
33750,-5.5057,4.3951,22.439,255,255,255
34000,-5.5179,4.3979,22.4437,255,255,255
34250,-5.5302,4.3996,22.4497,255,255,255
34500,-5.5425,4.4002,22.457,255,255,255
34750,-5.5547,4.3996,22.4655,255,255,255
35000,-5.567,4.3978,22.4754,255,255,255
35250,-5.5792,4.3946,22.4865,255,255,255
35500,-5.5914,4.39,22.4989,255,255,255
35750,-5.6036,4.384,22.5126,255,255,255
36000,-5.6158,4.3763,22.5275,255,255,255
36250,-5.6279,4.3671,22.5436,255,255,255
36500,-5.64,4.3561,22.5611,255,255,255
36750,-5.652,4.3433,22.5797,255,255,255
37000,-5.664,4.3289,22.5995,255,255,255
37250,-5.676,4.3131,22.6199,255,255,255
37500,-5.6881,4.2962,22.6409,255,255,255
37750,-5.7003,4.2782,22.6625,255,255,255
38000,-5.7124,4.2593,22.6847,255,255,255
38250,-5.7246,4.2396,22.7073,255,255,255
38500,-5.7368,4.2192,22.7305,255,255,255
38750,-5.749,4.1983,22.754,255,255,255
39000,-5.7612,4.177,22.7779,255,255,255
39250,-5.7735,4.1553,22.8022,255,255,255
39500,-5.7858,4.1335,22.8267,255,255,255
39750,-5.798,4.1117,22.8514,255,255,255
40000,-5.8103,4.0899,22.8764,255,255,255
40250,-5.8226,4.0684,22.9015,255,255,255
40500,-5.8349,4.0472,22.9268,255,255,255
40750,-5.8471,4.0264,22.9521,255,255,255
41000,-5.8594,4.0063,22.9775,255,255,255
41250,-5.8716,3.9869,23.0028,255,255,255
41500,-5.8839,3.9683,23.0281,255,255,255
41750,-5.8961,3.9506,23.0532,255,255,255
42000,-5.9083,3.9341,23.0783,255,255,255
42250,-5.9205,3.9188,23.1031,255,255,255
42500,-5.9327,3.9049,23.1278,255,255,255
42750,-5.9448,3.8924,23.1521,255,255,255
43000,-5.9569,3.8815,23.1762,255,255,255
43250,-5.969,3.8723,23.1998,255,255,255
43500,-5.981,3.865,23.2231,255,255,255
43750,-5.9933,3.8598,23.2457,255,255,255
44000,-6.0062,3.8569,23.2672,255,255,255
44250,-6.0199,3.8562,23.2874,255,255,255
44500,-6.0341,3.8575,23.3066,255,255,255
44750,-6.0487,3.8606,23.3247,255,255,255
45000,-6.0638,3.8655,23.3417,255,255,255
45250,-6.0793,3.8719,23.3577,255,255,255
45500,-6.0949,3.8797,23.3726,255,255,255
45750,-6.1108,3.8888,23.3867,255,255,255
46000,-6.1267,3.899,23.3997,255,255,255
46250,-6.1427,3.9102,23.4119,255,255,255
46500,-6.1586,3.9222,23.4231,255,255,255
46750,-6.1743,3.9349,23.4335,255,255,255
47000,-6.1898,3.9481,23.4431,255,255,255
47250,-6.205,3.9617,23.4519,255,255,255
47500,-6.2198,3.9755,23.4599,255,255,255
47750,-6.2341,3.9894,23.4671,255,255,255
48000,-6.2479,4.0032,23.4736,255,255,255
48250,-6.2611,4.0168,23.4795,255,255,255
48500,-6.2736,4.03,23.4847,255,255,255
48750,-6.2853,4.0427,23.4893,255,255,255
49000,-6.2961,4.0547,23.4933,255,255,255
49250,-6.306,4.0659,23.4967,255,255,255
49500,-6.3148,4.0761,23.4995,255,255,255
49750,-6.3226,4.0853,23.5019,255,255,255
50000,-6.3291,4.0931,23.5038,255,255,255
50250,-6.3344,4.0996,23.5052,255,255,255
50500,-6.3384,4.1045,23.5062,255,255,255
50750,-6.3409,4.1077,23.5068,255,255,255
51000,-6.342,4.109,23.507,255,255,255
51250,-6.342,4.109,23.507,255,255,255
51500,-6.342,4.109,23.507,255,255,255
51750,-6.342,4.109,23.507,255,255,255
52000,-6.342,4.109,23.507,255,255,255
52250,-6.342,4.109,23.507,255,255,255
52500,-6.342,4.109,23.507,255,255,255
52750,-6.342,4.109,23.507,255,255,255
53000,-6.342,4.109,23.507,255,255,255
53250,-6.342,4.109,23.507,255,255,255
53500,-6.342,4.109,23.507,255,255,255
53750,-6.342,4.109,23.507,255,255,255
54000,-6.342,4.109,23.507,255,255,255
54250,-6.3297,4.098,23.453,255,255,255
54500,-6.2991,4.0705,23.2721,255,255,255
54750,-6.2789,4.0522,23.0103,255,255,255
55000,-6.2987,4.0698,22.7157,255,255,255
55250,-6.3881,4.1496,22.4369,255,255,255
55500,-6.5376,4.2833,22.1924,255,255,255
55750,-6.6886,4.4183,21.9489,255,255,255
56000,-6.8726,4.5827,21.6526,255,255,255
56250,-7.1332,4.8152,21.234,255,255,255
56500,-7.4406,5.0895,20.7404,255,255,255
56750,-7.7636,5.3777,20.2218,255,255,255
57000,-8.0711,5.6522,19.728,255,255,255
57250,-8.3528,5.9038,19.2754,255,255,255
57500,-8.6338,6.1548,18.8239,255,255,255
57750,-8.9148,6.4058,18.3724,255,255,255
58000,-9.1958,6.6568,17.9209,255,255,255
58250,-9.4768,6.9078,17.4694,255,255,255
58500,-9.7578,7.1588,17.0179,255,255,255
58750,-10.0388,7.4098,16.5664,255,255,255
59000,-10.3198,7.6608,16.1149,255,255,255
59250,-10.6008,7.9118,15.6634,255,255,255
59500,-10.8818,8.1628,15.2119,255,255,255
59750,-11.1628,8.4138,14.7604,255,255,255
60000,-11.4438,8.6648,14.3089,255,255,255
60250,-11.7228,8.9134,13.8574,255,255,255
60500,-12.0038,9.1639,13.4059,255,255,255
60750,-12.2848,9.4144,12.9544,255,255,255
61000,-12.5658,9.6649,12.5029,255,255,255
61250,-12.8464,9.9164,12.0514,255,255,255
61500,-13.1269,10.1669,11.5999,255,255,255
61750,-13.2826,10.3059,11.3497,255,255,255
62000,-13.4131,10.4224,11.1402,255,255,255
62250,-13.5152,10.5136,10.9158,255,255,255
62500,-13.5508,10.5453,10.6623,255,255,255
62750,-13.5434,10.5388,10.4033,255,255,255
63000,-13.5183,10.5163,10.1629,255,255,255
63250,-13.5005,10.5004,9.9653,255,255,255
63500,-13.5,10.5,9.812,255,255,255
63750,-13.5,10.5,9.6705,255,255,255
64000,-13.5,10.5,9.5382,255,255,255
64250,-13.5,10.5,9.4131,255,255,255
64500,-13.5,10.5,9.2933,255,255,255
64750,-13.5,10.5,9.1771,255,255,255
65000,-13.5,10.5,9.0624,255,255,255
65250,-13.5,10.5,8.9474,255,255,255
65500,-13.5,10.5,8.8302,255,255,255
65750,-13.5,10.5,8.7089,255,255,255
66000,-13.5,10.5,8.584,255,255,255
66250,-13.5,10.5,8.459,255,255,255
66500,-13.5,10.5,8.334,255,255,255
66750,-13.5,10.5,8.209,255,255,255
67000,-13.5,10.5,8.084,255,255,255
67250,-13.5,10.5,7.959,255,255,255
67500,-13.5,10.5,7.834,255,255,255
67750,-13.5,10.5,7.709,255,255,255
68000,-13.5,10.5,7.584,255,255,255
68250,-13.5,10.5,7.459,255,255,255
68500,-13.5,10.5,7.334,255,255,255
68750,-13.5,10.5,7.209,255,255,255
69000,-13.5,10.5,7.084,255,255,255
69250,-13.5,10.5,6.959,255,255,255
69500,-13.5,10.5,6.834,255,255,255
69750,-13.5,10.5,6.709,255,255,255
70000,-13.5,10.5,6.584,255,255,255
70250,-13.5,10.5,6.459,255,255,255
70500,-13.5,10.5,6.334,255,255,255
70750,-13.5,10.5,6.209,255,255,255
71000,-13.5,10.5,6.084,255,255,255
71250,-13.5,10.5,5.959,255,255,255
71500,-13.5,10.5,5.834,255,255,255
71750,-13.5,10.5,5.709,255,255,255
72000,-13.5,10.5,5.584,255,255,255
72250,-13.5,10.5,5.459,255,255,255
72500,-13.5,10.5,5.334,255,255,255
72750,-13.5,10.5,5.209,255,255,255
73000,-13.5,10.5,5.084,255,255,255
73250,-13.5,10.5,4.959,255,255,255
73500,-13.5,10.5,4.834,255,255,255
73750,-13.5,10.5,4.709,255,255,255
74000,-13.5,10.5,4.584,255,255,255
74250,-13.5,10.5,4.459,255,255,255
74500,-13.5,10.5,4.334,255,255,255
74750,-13.5,10.5,4.209,255,255,255
75000,-13.5,10.5,4.084,255,255,255
75250,-13.5,10.5,3.959,255,255,255
75500,-13.5,10.5,3.834,255,255,255
75750,-13.5,10.5,3.709,255,255,255
76000,-13.5,10.5,3.584,255,255,255
76250,-13.5,10.5,3.459,255,255,255
76500,-13.5,10.5,3.334,255,255,255
76750,-13.5,10.5,3.209,255,255,255
77000,-13.5,10.5,3.084,255,255,255
77250,-13.5,10.5,2.959,255,255,255
77500,-13.5,10.5,2.834,255,255,255
77750,-13.5,10.5,2.709,255,255,255
78000,-13.5,10.5,2.584,255,255,255
78250,-13.5,10.5,2.459,255,255,255
78500,-13.5,10.5,2.334,255,255,255
78750,-13.5,10.5,2.209,255,255,255
79000,-13.5,10.5,2.084,255,255,255
79250,-13.5,10.5,1.959,255,255,255
79500,-13.5,10.5,1.834,255,255,255
79750,-13.5,10.5,1.708,255,255,255
80000,-13.5,10.5,1.583,255,255,255
80250,-13.5,10.5,1.458,255,255,255
80500,-13.5,10.5,1.333,255,255,255
80750,-13.5,10.5,1.208,255,255,255
81000,-13.5,10.5,1.083,255,255,255
81250,-13.5,10.5,0.958,255,255,255
81500,-13.5,10.5,0.833,255,255,255
81750,-13.5,10.5,0.708,255,255,255
82000,-13.5,10.5,0.583,255,255,255
82250,-13.5,10.5,0.4482,255,255,255
82500,-13.5,10.5,0.299,255,255,255
82750,-13.5,10.5,0.1588,255,255,255
83000,-13.5,10.5,0.0515,255,255,255
83250,-13.5,10.5,0.0012,255,255,255
83500,-13.5,10.5,0,255,255,255
83750,-13.5,10.5,0,255,255,255
84000,-13.5,10.5,0,255,255,255
84250,-13.5,10.5,0,255,255,255
84500,-13.5,10.5,0,255,255,255
84750,-13.5,10.5,0,255,255,255
85000,-13.5,10.5,0,255,255,255
85250,-13.5,10.5,0,255,255,255
85500,-13.5,10.5,0,255,255,255
85750,-13.5,10.5,0,255,255,255
86000,-13.5,10.5,0,255,255,255
86250,-13.5,10.5,0,255,255,255
86500,-13.5,10.5,0,255,255,255
86750,-13.5,10.5,0,255,255,255
87000,-13.5,10.5,0,255,255,255
87250,-13.5,10.5,0,255,255,255
87500,-13.5,10.5,0,255,255,255
87750,-13.5,10.5,0,255,255,255
88000,-13.5,10.5,0,255,255,255
88250,-13.5,10.5,0,255,255,255
88500,-13.5,10.5,0,255,255,255
88750,-13.5,10.5,0,255,255,255
89000,-13.5,10.5,0,255,255,255
89250,-13.5,10.5,0,255,255,255
89500,-13.5,10.5,0,255,255,255
89750,-13.5,10.5,0,255,255,255
90000,-13.5,10.5,0,255,255,255
90250,-13.5,10.5,0,255,255,255
90500,-13.5,10.5,0,255,255,255
90750,-13.5,10.5,0,255,255,255
91000,-13.5,10.5,0,255,255,255
91250,-13.5,10.5,0,255,255,255
91500,-13.5,10.5,0,255,255,255
91750,-13.5,10.5,0,255,255,255
92000,-13.5,10.5,0,255,255,255
92250,-13.5,10.5,0,255,255,255
92500,-13.5,10.5,0,255,255,255
92750,-13.5,10.5,0,255,255,255
93000,-13.5,10.5,0,255,255,255
93250,-13.5,10.5,0,255,255,255
93500,-13.5,10.5,0,255,255,255
93750,-13.5,10.5,0,255,255,255
94000,-13.5,10.5,0,255,255,255
94250,-13.5,10.5,0,255,255,255
94500,-13.5,10.5,0,255,255,255
94750,-13.5,10.5,0,255,255,255
95000,-13.5,10.5,0,255,255,255
95250,-13.5,10.5,0,255,255,255
95500,-13.5,10.5,0,255,255,255
95750,-13.5,10.5,0,255,255,255
96000,-13.5,10.5,0,255,255,255
96250,-13.5,10.5,0,255,255,255
96500,-13.5,10.5,0,255,255,255
96750,-13.5,10.5,0,255,255,255
97000,-13.5,10.5,0,255,255,255
97250,-13.5,10.5,0,255,255,255
97500,-13.5,10.5,0,255,255,255
97750,-13.5,10.5,0,255,255,255
98000,-13.5,10.5,0,255,255,255
98250,-13.5,10.5,0,255,255,255
98500,-13.5,10.5,0,255,255,255
98750,-13.5,10.5,0,255,255,255
99000,-13.5,10.5,0,255,255,255
99250,-13.5,10.5,0,255,255,255
99500,-13.5,10.5,0,255,255,255
99750,-13.5,10.5,0,255,255,255
100000,-13.5,10.5,0,255,255,255
100250,-13.5,10.5,0,255,255,255
100500,-13.5,10.5,0,255,255,255
100750,-13.5,10.5,0,255,255,255
101000,-13.5,10.5,0,255,255,255
101250,-13.5,10.5,0,255,255,255
101500,-13.5,10.5,0,255,255,255
101750,-13.5,10.5,0,255,255,255
102000,-13.5,10.5,0,255,255,255
102250,-13.5,10.5,0,255,255,255
102500,-13.5,10.5,0,255,255,255
102750,-13.5,10.5,0,255,255,255
103000,-13.5,10.5,0,255,255,255
103250,-13.5,10.5,0,255,255,255
103500,-13.5,10.5,0,255,255,255
103750,-13.5,10.5,0,255,255,255
104000,-13.5,10.5,0,255,255,255
