Time [msec],x [m],y [m],z [m],Red,Green,Blue
0,-17.5,-5,0,255,255,255
250,-17.5,-5,0.0474,255,255,255
500,-17.5,-5,0.2195,255,255,255
750,-17.5,-5,0.5,255,255,255
1000,-17.5,-5,0.8703,255,255,255
1250,-17.5,-5,1.3121,255,255,255
1500,-17.5,-5,1.8083,255,255,255
1750,-17.5,-5,2.3437,255,255,255
2000,-17.5,-5,2.9005,255,255,255
2250,-17.5,-5,3.4611,255,255,255
2500,-17.5,-5,4.0076,255,255,255
2750,-17.5,-5,4.5223,255,255,255
3000,-17.5,-5,4.9874,255,255,255
3250,-17.5,-5,5.3853,255,255,255
3500,-17.5,-5,5.6982,255,255,255
3750,-17.5,-5,5.9084,255,255,255
4000,-17.5,-5,5.998,255,255,255
4250,-17.5,-5,6,255,255,255
4500,-17.5,-5,6,255,255,255
4750,-17.5,-5,6,255,255,255
5000,-17.5,-5,6,255,255,255
5250,-17.5,-5,6,255,255,255
5500,-17.5,-5,6,255,255,255
5750,-17.5,-5,6,255,255,255
6000,-17.5,-5,6,255,255,255
6250,-17.5022,-4.9951,6.0136,255,255,255
6500,-17.5105,-4.9766,6.0653,255,255,255
6750,-17.5249,-4.9447,6.1542,255,255,255
7000,-17.5449,-4.9001,6.2787,255,255,255
7250,-17.5705,-4.8431,6.4374,255,255,255
7500,-17.6014,-4.7745,6.6289,255,255,255
7750,-17.6374,-4.6946,6.8517,255,255,255
8000,-17.6781,-4.604,7.1044,255,255,255
8250,-17.7234,-4.5032,7.3854,255,255,255
8500,-17.7731,-4.3927,7.6934,255,255,255
8750,-17.8269,-4.2732,8.0268,255,255,255
9000,-17.8846,-4.145,8.3842,255,255,255
9250,-17.9459,-4.0088,8.7642,255,255,255
9500,-18.0106,-3.865,9.1652,255,255,255
9750,-18.0785,-3.7141,9.5859,255,255,255
10000,-18.1493,-3.5568,10.0247,255,255,255
10250,-18.2229,-3.3935,10.4803,255,255,255
10500,-18.2989,-3.2247,10.951,255,255,255
10750,-18.3771,-3.051,11.4356,255,255,255
11000,-18.4573,-2.8728,11.9324,255,255,255
11250,-18.5393,-2.6908,12.4401,255,255,255
11500,-18.6229,-2.5054,12.9573,255,255,255
11750,-18.7077,-2.3172,13.4823,255,255,255
12000,-18.7936,-2.1266,14.0138,255,255,255
12250,-18.8803,-1.9343,14.5504,255,255,255
12500,-18.9676,-1.7407,15.0905,255,255,255
12750,-19.0552,-1.5464,15.6327,255,255,255
13000,-19.143,-1.3518,16.1755,255,255,255
13250,-19.2307,-1.1575,16.7175,255,255,255
13500,-19.318,-0.9641,17.2572,255,255,255
13750,-19.4047,-0.772,17.7932,255,255,255
14000,-19.4907,-0.5818,18.324,255,255,255
14250,-19.5755,-0.394,18.8481,255,255,255
14500,-19.6591,-0.2091,19.3641,255,255,255
14750,-19.7411,-0.0277,19.8704,255,255,255
15000,-19.8214,0.1498,20.3658,255,255,255
15250,-19.8997,0.3227,20.8486,255,255,255
15500,-19.9758,0.4907,21.3175,255,255,255
15750,-20.0494,0.653,21.7709,255,255,255
16000,-20.1204,0.8094,22.2074,255,255,255
16250,-20.1881,0.9585,22.624,255,255,255
16500,-20.2518,1.0992,23.0166,255,255,255
16750,-20.3114,1.231,23.3846,255,255,255
17000,-20.3669,1.3538,23.7273,255,255,255
17250,-20.4182,1.4673,24.0441,255,255,255
17500,-20.4651,1.5713,24.3343,255,255,255
17750,-20.5075,1.6656,24.5973,255,255,255
18000,-20.5455,1.7499,24.8324,255,255,255
18250,-20.5787,1.8239,25.0389,255,255,255
18500,-20.6073,1.8876,25.2164,255,255,255
18750,-20.631,1.9405,25.364,255,255,255
19000,-20.6499,1.9826,25.4811,255,255,255
19250,-20.6637,2.0134,25.5672,255,255,255
19500,-20.6724,2.0329,25.6216,255,255,255
19750,-20.6759,2.0408,25.6435,255,255,255
20000,-20.676,2.041,25.644,255,255,255
20250,-20.676,2.041,25.644,255,255,255
20500,-20.676,2.041,25.644,255,255,255
20750,-20.676,2.041,25.644,255,255,255
21000,-20.676,2.041,25.644,255,255,255
21250,-20.676,2.041,25.644,255,255,255
21500,-20.676,2.041,25.644,255,255,255
21750,-20.676,2.041,25.644,255,255,255
22000,-20.676,2.041,25.644,255,255,255
22250,-20.676,2.041,25.644,255,255,255
22500,-20.676,2.041,25.644,255,255,255
22750,-20.676,2.041,25.644,255,255,255
23000,-20.676,2.041,25.644,255,255,255
23250,-20.676,2.041,25.644,255,255,255
23500,-20.676,2.041,25.644,255,255,255
23750,-20.6728,2.0524,25.6396,255,255,255
24000,-20.6096,2.1113,25.6146,255,255,255
24250,-20.3963,2.2448,25.5538,255,255,255
24500,-19.9423,2.4797,25.4427,255,255,255
24750,-19.2385,2.8193,25.2794,255,255,255
25000,-18.4479,3.2174,25.0898,255,255,255
25250,-17.6658,3.6468,24.8891,255,255,255
25500,-16.9855,4.0813,24.692,255,255,255
25750,-16.4999,4.4945,24.5132,255,255,255
26000,-16.2773,4.8662,24.3639,255,255,255
26250,-16.2691,5.1975,24.2412,255,255,255
26500,-16.397,5.4923,24.1392,255,255,255
26750,-16.5827,5.754,24.0525,255,255,255
27000,-16.7592,5.9856,23.9763,255,255,255
27250,-16.9091,6.1826,23.9114,255,255,255
27500,-17.0265,6.3369,23.8607,255,255,255
27750,-17.1049,6.4401,23.8268,255,255,255
28000,-17.1383,6.484,23.8123,255,255,255
28250,-17.139,6.485,23.812,255,255,255
28500,-17.139,6.485,23.812,255,255,255
28750,-17.139,6.485,23.812,255,255,255
29000,-17.139,6.485,23.812,255,255,255
29250,-17.139,6.485,23.812,255,255,255
29500,-17.139,6.485,23.812,255,255,255
29750,-17.139,6.485,23.812,255,255,255
30000,-17.139,6.485,23.812,255,255,255
30250,-17.139,6.485,23.812,255,255,255
30500,-17.139,6.485,23.812,255,255,255
30750,-17.139,6.485,23.812,255,255,255
31000,-17.139,6.485,23.812,255,255,255
31250,-17.139,6.485,23.812,255,255,255
31500,-17.139,6.485,23.812,255,255,255
31750,-17.139,6.485,23.812,255,255,255
32000,-17.139,6.485,23.812,255,255,255
32250,-17.1224,6.4746,23.8079,255,255,255
32500,-17.0906,6.435,23.8194,255,255,255
32750,-17.0998,6.3665,23.8948,255,255,255
33000,-17.2073,6.2699,24.0829,255,255,255
33250,-17.4292,6.1466,24.3965,255,255,255
33500,-17.6888,5.9983,24.7675,255,255,255
33750,-17.938,5.8254,25.1538,255,255,255
34000,-18.1298,5.6285,25.5141,255,255,255
34250,-18.2171,5.4079,25.8074,255,255,255
34500,-18.153,5.1642,25.9925,255,255,255
34750,-17.9057,4.8987,26.0404,255,255,255
35000,-17.5126,4.6198,25.9755,255,255,255
35250,-17.0269,4.3386,25.8329,255,255,255
35500,-16.5019,4.0662,25.6476,255,255,255
35750,-15.9907,3.8137,25.4547,255,255,255
36000,-15.5374,3.5907,25.2826,255,255,255
36250,-15.1559,3.4032,25.1379,255,255,255
36500,-14.8601,3.2579,25.0257,255,255,255
36750,-14.6637,3.1616,24.9512,255,255,255
37000,-14.5808,3.1209,24.9197,255,255,255
37250,-14.579,3.12,24.919,255,255,255
37500,-14.579,3.12,24.919,255,255,255
37750,-14.579,3.12,24.919,255,255,255
38000,-14.579,3.12,24.919,255,255,255
38250,-14.579,3.12,24.919,255,255,255
38500,-14.579,3.12,24.919,255,255,255
38750,-14.579,3.12,24.919,255,255,255
39000,-14.579,3.12,24.919,255,255,255
39250,-14.579,3.12,24.919,255,255,255
39500,-14.579,3.12,24.919,255,255,255
39750,-14.579,3.12,24.919,255,255,255
40000,-14.579,3.12,24.919,255,255,255
40250,-14.579,3.12,24.919,255,255,255
40500,-14.579,3.12,24.919,255,255,255
40750,-14.579,3.12,24.919,255,255,255
41000,-14.579,3.12,24.919,255,255,255
41250,-14.5859,3.1212,24.9217,255,255,255
41500,-14.6163,3.1215,24.9413,255,255,255
41750,-14.6774,3.1139,24.9947,255,255,255
42000,-14.7762,3.0909,25.0984,255,255,255
42250,-14.9155,3.058,25.2551,255,255,255
42500,-15.0899,3.0382,25.4357,255,255,255
42750,-15.2977,3.0361,25.6211,255,255,255
43000,-15.5372,3.0561,25.7928,255,255,255
43250,-15.8069,3.1025,25.9324,255,255,255
43500,-16.1052,3.1797,26.0213,255,255,255
43750,-16.4308,3.2817,26.0468,255,255,255
44000,-16.7826,3.3885,26.0253,255,255,255
44250,-17.1589,3.4943,25.9823,255,255,255
44500,-17.5581,3.5938,25.9431,255,255,255
44750,-17.9784,3.6817,25.933,255,255,255
45000,-18.3864,3.7539,25.977,255,255,255
45250,-18.795,3.8216,26.0963,255,255,255
45500,-19.3312,3.905,26.3111,255,255,255
45750,-20.1925,4.0302,26.6362,255,255,255
46000,-21.4807,4.2067,27.0534,255,255,255
46250,-23.0539,4.4177,27.5322,255,255,255
46500,-24.7664,4.6459,28.042,255,255,255
46750,-26.4724,4.8739,28.5524,255,255,255
47000,-28.1005,5.0929,29.0482,255,255,255
47250,-29.5341,5.2889,29.5113,255,255,255
47500,-30.4374,5.4233,29.8828,255,255,255
47750,-30.8242,5.4977,30.1645,255,255,255
48000,-31.1982,5.5707,30.444,255,255,255
48250,-31.4457,5.6283,30.7007,255,255,255
48500,-31.6677,5.6828,30.9527,255,255,255
48750,-31.8891,5.7373,31.2041,255,255,255
49000,-32.1085,5.7914,31.4538,255,255,255
49250,-32.3254,5.845,31.701,255,255,255
49500,-32.5396,5.8981,31.9451,255,255,255
49750,-32.7504,5.9503,32.1856,255,255,255
50000,-32.9576,6.0015,32.4218,255,255,255
50250,-33.1606,6.0516,32.6531,255,255,255
50500,-33.3587,6.1006,32.8788,255,255,255
50750,-33.5513,6.1482,33.0982,255,255,255
51000,-33.7378,6.1943,33.3108,255,255,255
51250,-33.9178,6.2388,33.5158,255,255,255
51500,-34.0905,6.2815,33.7126,255,255,255
51750,-34.2554,6.3223,33.9005,255,255,255
52000,-34.4119,6.361,34.0788,255,255,255
52250,-34.5595,6.3976,34.2469,255,255,255
52500,-34.6975,6.4318,34.4042,255,255,255
52750,-34.8254,6.4634,34.5499,255,255,255
53000,-34.9426,6.4924,34.6834,255,255,255
53250,-35.0485,6.5187,34.8041,255,255,255
53500,-35.1426,6.542,34.9112,255,255,255
53750,-35.2241,6.5622,35.0041,255,255,255
54000,-35.2927,6.5792,35.0822,255,255,255
54250,-35.3476,6.5928,35.1448,255,255,255
54500,-35.3883,6.6029,35.1912,255,255,255
54750,-35.4142,6.6093,35.2207,255,255,255
55000,-35.4248,6.6119,35.2327,255,255,255
55250,-35.425,6.612,35.233,255,255,255
55500,-35.425,6.612,35.233,255,255,255
55750,-35.425,6.612,35.233,255,255,255
56000,-35.425,6.612,35.233,255,255,255
56250,-35.425,6.612,35.233,255,255,255
56500,-35.425,6.612,35.233,255,255,255
56750,-35.425,6.612,35.233,255,255,255
57000,-35.425,6.612,35.233,255,255,255
57250,-35.425,6.612,35.233,255,255,255
57500,-35.425,6.612,35.233,255,255,255
57750,-35.425,6.612,35.233,255,255,255
58000,-35.425,6.612,35.233,255,255,255
58250,-35.425,6.612,35.233,255,255,255
58500,-35.425,6.612,35.233,255,255,255
58750,-35.425,6.612,35.233,255,255,255
59000,-35.425,6.612,35.233,255,255,255
59250,-35.4123,6.6039,35.2317,255,255,255
59500,-35.3645,6.5732,35.2269,255,255,255
59750,-35.2824,6.5206,35.2186,255,255,255
60000,-35.1675,6.4473,35.207,255,255,255
60250,-35.0213,6.3541,35.1922,255,255,255
60500,-34.8453,6.2421,35.1744,255,255,255
60750,-34.641,6.1125,35.1537,255,255,255
61000,-34.4131,5.9679,35.1307,255,255,255
61250,-34.1712,5.8144,35.1064,255,255,255
61500,-33.9211,5.6555,35.0812,255,255,255
61750,-33.6681,5.4946,35.0558,255,255,255
62000,-33.4176,5.3352,35.0307,255,255,255
62250,-33.1752,5.1809,35.0064,255,255,255
62500,-32.9463,5.0351,34.9835,255,255,255
62750,-32.7362,4.9013,34.9625,255,255,255
63000,-32.5506,4.783,34.944,255,255,255
63250,-32.3948,4.6837,34.9284,255,255,255
63500,-32.2742,4.6068,34.9164,255,255,255
63750,-32.1944,4.5559,34.9084,255,255,255
64000,-32.1607,4.5345,34.9051,255,255,255
64250,-32.16,4.534,34.905,255,255,255
64500,-32.16,4.534,34.905,255,255,255
64750,-32.16,4.534,34.905,255,255,255
65000,-32.16,4.534,34.905,255,255,255
65250,-32.16,4.534,34.905,255,255,255
65500,-32.16,4.534,34.905,255,255,255
65750,-32.16,4.534,34.905,255,255,255
66000,-32.16,4.534,34.905,255,255,255
66250,-32.16,4.534,34.905,255,255,255
66500,-32.16,4.534,34.905,255,255,255
66750,-32.16,4.534,34.905,255,255,255
67000,-32.16,4.534,34.905,255,255,255
67250,-32.16,4.534,34.905,255,255,255
67500,-32.16,4.534,34.905,255,255,255
67750,-32.16,4.534,34.905,255,255,255
68000,-32.16,4.534,34.905,255,255,255
68250,-32.16,4.534,34.905,255,255,255
68500,-32.16,4.534,34.905,255,255,255
68750,-32.16,4.534,34.905,255,255,255
69000,-32.16,4.534,34.905,255,255,255
69250,-32.16,4.534,34.905,255,255,255
69500,-32.16,4.534,34.905,255,255,255
69750,-32.16,4.534,34.905,255,255,255
70000,-32.16,4.534,34.905,255,255,255
70250,-32.16,4.534,34.905,255,255,255
70500,-32.16,4.534,34.905,255,255,255
70750,-32.16,4.534,34.905,255,255,255
71000,-32.16,4.534,34.905,255,255,255
71250,-32.16,4.534,34.905,255,255,255
71500,-32.16,4.534,34.905,255,255,255
71750,-32.16,4.534,34.905,255,255,255
72000,-32.16,4.534,34.905,255,255,255
72250,-32.16,4.534,34.905,255,255,255
72500,-32.16,4.534,34.905,255,255,255
72750,-32.16,4.534,34.905,255,255,255
73000,-32.16,4.534,34.905,255,255,255
73250,-32.16,4.534,34.905,255,255,255
73500,-32.16,4.534,34.905,255,255,255
73750,-32.16,4.534,34.905,255,255,255
74000,-32.16,4.534,34.905,255,255,255
74250,-32.16,4.534,34.905,255,255,255
74500,-32.16,4.534,34.905,255,255,255
74750,-32.16,4.534,34.905,255,255,255
75000,-32.16,4.534,34.905,255,255,255
75250,-32.16,4.534,34.905,255,255,255
75500,-32.16,4.534,34.905,255,255,255
75750,-32.16,4.534,34.905,255,255,255
76000,-32.16,4.534,34.905,255,255,255
76250,-32.16,4.534,34.905,255,255,255
76500,-32.1525,4.5342,34.8955,255,255,255
76750,-32.1238,4.5349,34.8592,255,255,255
77000,-32.0743,4.5361,34.7965,255,255,255
77250,-32.0045,4.5378,34.7081,255,255,255
77500,-31.9151,4.54,34.5949,255,255,255
77750,-31.8067,4.5426,34.4576,255,255,255
78000,-31.6797,4.5457,34.2969,255,255,255
78250,-31.535,4.5493,34.1136,255,255,255
78500,-31.373,4.5532,33.9085,255,255,255
78750,-31.1943,4.5576,33.6823,255,255,255
79000,-30.9996,4.5623,33.4357,255,255,255
79250,-30.7894,4.5674,33.1696,255,255,255
79500,-30.5644,4.5729,32.8846,255,255,255
79750,-30.3251,4.5787,32.5816,255,255,255
80000,-30.0721,4.5849,32.2613,255,255,255
80250,-29.8061,4.5913,31.9244,255,255,255
80500,-29.5276,4.5981,31.5718,255,255,255
80750,-29.2373,4.6051,31.2041,255,255,255
81000,-28.9356,4.6124,30.8221,255,255,255
81250,-28.6234,4.6199,30.4266,255,255,255
81500,-28.301,4.6277,30.0184,255,255,255
81750,-27.9692,4.6357,29.5982,255,255,255
82000,-27.6285,4.6439,29.1667,255,255,255
82250,-27.2795,4.6523,28.7247,255,255,255
82500,-26.9228,4.6609,28.273,255,255,255
82750,-26.5591,4.6696,27.8123,255,255,255
83000,-26.1889,4.6784,27.3434,255,255,255
83250,-25.8128,4.6874,26.8671,255,255,255
83500,-25.4315,4.6965,26.384,255,255,255
83750,-25.0454,4.7057,25.895,255,255,255
84000,-24.6553,4.715,25.4009,255,255,255
84250,-24.2617,4.7244,24.9022,255,255,255
84500,-23.8652,4.7338,24.4,255,255,255
84750,-23.4664,4.7432,23.8948,255,255,255
85000,-23.0659,4.7527,23.3874,255,255,255
85250,-22.6643,4.7621,22.8787,255,255,255
85500,-22.2623,4.7716,22.3693,255,255,255
85750,-21.8603,4.781,21.86,255,255,255
86000,-21.459,4.7904,21.3516,255,255,255
86250,-21.0591,4.7997,20.8448,255,255,255
86500,-20.6611,4.809,20.3404,255,255,255
86750,-20.2655,4.8182,19.8391,255,255,255
87000,-19.8731,4.8272,19.3418,255,255,255
87250,-19.4843,4.8362,18.8491,255,255,255
87500,-19.0999,4.845,18.3618,255,255,255
87750,-18.7203,4.8537,17.8807,255,255,255
88000,-18.3462,4.8622,17.4066,255,255,255
88250,-17.9783,4.8705,16.9401,255,255,255
88500,-17.617,4.8787,16.4821,255,255,255
88750,-17.2634,4.8866,16.0337,255,255,255
89000,-16.9186,4.8944,15.5967,255,255,255
89250,-16.5832,4.9021,15.1715,255,255,255
89500,-16.2576,4.9096,14.7588,255,255,255
89750,-15.9422,4.9169,14.3592,255,255,255
90000,-15.6376,4.924,13.9732,255,255,255
90250,-15.3441,4.9309,13.6014,255,255,255
90500,-15.0623,4.9375,13.2443,255,255,255
90750,-14.7926,4.9439,12.9027,255,255,255
91000,-14.5355,4.95,12.577,255,255,255
91250,-14.2914,4.9559,12.2678,255,255,255
91500,-14.0607,4.9615,11.9758,255,255,255
91750,-13.8441,4.9667,11.7014,255,255,255
92000,-13.6418,4.9716,11.4453,255,255,255
92250,-13.4545,4.9762,11.2081,255,255,255
92500,-13.2824,4.9805,10.9903,255,255,255
92750,-13.1262,4.9843,10.7925,255,255,255
93000,-12.9862,4.9878,10.6153,255,255,255
93250,-12.8629,4.9909,10.4593,255,255,255
93500,-12.7568,4.9935,10.325,255,255,255
93750,-12.6684,4.9957,10.2131,255,255,255
94000,-12.5981,4.9975,10.1241,255,255,255
94250,-12.5463,4.9988,10.0586,255,255,255
94500,-12.5135,4.9997,10.0171,255,255,255
94750,-12.5003,5,10.0004,255,255,255
95000,-12.5,5,10,255,255,255
95250,-12.5,5,10,255,255,255
95500,-12.5,5,10,255,255,255
95750,-12.5,5,10,255,255,255
