Time [msec],x [m],y [m],z [m],Red,Green,Blue
0,-4.5,4.5,0,255,255,255
250,-4.499,4.4969,0.0217,255,255,255
500,-4.4953,4.4853,0.1031,255,255,255
750,-4.489,4.4656,0.2415,255,255,255
1000,-4.4802,4.4383,0.433,255,255,255
1250,-4.4692,4.404,0.6741,255,255,255
1500,-4.4561,4.3631,0.9611,255,255,255
1750,-4.4411,4.3162,1.2901,255,255,255
2000,-4.4243,4.2639,1.6576,255,255,255
2250,-4.406,4.2066,2.0598,255,255,255
2500,-4.3862,4.1449,2.493,255,255,255
2750,-4.3652,4.0794,2.9535,255,255,255
3000,-4.3431,4.0104,3.4377,255,255,255
3250,-4.3201,3.9387,3.9417,255,255,255
3500,-4.2963,3.8646,4.462,255,255,255
3750,-4.272,3.7888,4.9948,255,255,255
4000,-4.2473,3.7117,5.5365,255,255,255
4250,-4.2223,3.6339,6.0832,255,255,255
4500,-4.1973,3.5559,6.6314,255,255,255
4750,-4.1724,3.4783,7.1772,255,255,255
5000,-4.1478,3.4015,7.7171,255,255,255
5250,-4.1236,3.3262,8.2473,255,255,255
5500,-4.1,3.2527,8.7641,255,255,255
5750,-4.0772,3.1817,9.2638,255,255,255
6000,-4.0553,3.1137,9.7427,255,255,255
6250,-4.0346,3.0492,10.1972,255,255,255
6500,-4.0151,2.9887,10.6234,255,255,255
6750,-3.9968,2.9315,11.027,255,255,255
7000,-3.9789,2.8751,11.4232,255,255,255
7250,-3.9616,2.8197,11.8124,255,255,255
7500,-3.9448,2.7653,12.1944,255,255,255
7750,-3.9285,2.7117,12.5691,255,255,255
8000,-3.9127,2.6591,12.9363,255,255,255
8250,-3.8974,2.6075,13.296,255,255,255
8500,-3.8827,2.5569,13.6481,255,255,255
8750,-3.8686,2.5073,13.9923,255,255,255
9000,-3.855,2.4588,14.3286,255,255,255
9250,-3.842,2.4113,14.6569,255,255,255
9500,-3.8295,2.3648,14.9771,255,255,255
9750,-3.8176,2.3194,15.289,255,255,255
10000,-3.8063,2.2752,15.5925,255,255,255
10250,-3.7956,2.232,15.8875,255,255,255
10500,-3.7855,2.19,16.1739,255,255,255
10750,-3.776,2.1491,16.4516,255,255,255
11000,-3.7672,2.1094,16.7204,255,255,255
11250,-3.7589,2.0709,16.9802,255,255,255
11500,-3.7513,2.0336,17.2309,255,255,255
11750,-3.7444,1.9975,17.4724,255,255,255
12000,-3.738,1.9627,17.7045,255,255,255
12250,-3.7324,1.9291,17.9272,255,255,255
12500,-3.7274,1.8968,18.1404,255,255,255
12750,-3.723,1.8658,18.3438,255,255,255
13000,-3.7194,1.836,18.5374,255,255,255
13250,-3.7164,1.8076,18.7211,255,255,255
13500,-3.7142,1.7806,18.8949,255,255,255
13750,-3.7125,1.7548,19.0593,255,255,255
14000,-3.7116,1.7302,19.2144,255,255,255
14250,-3.7112,1.7068,19.3606,255,255,255
14500,-3.7115,1.6846,19.4981,255,255,255
14750,-3.7124,1.6635,19.6273,255,255,255
15000,-3.7138,1.6435,19.7484,255,255,255
15250,-3.7157,1.6245,19.8616,255,255,255
15500,-3.7182,1.6065,19.9673,255,255,255
15750,-3.7212,1.5895,20.0658,255,255,255
16000,-3.7247,1.5735,20.1572,255,255,255
16250,-3.7286,1.5583,20.242,255,255,255
16500,-3.733,1.544,20.3203,255,255,255
16750,-3.7378,1.5305,20.3924,255,255,255
17000,-3.743,1.5178,20.4586,255,255,255
17250,-3.7486,1.5058,20.5192,255,255,255
17500,-3.7546,1.4945,20.5745,255,255,255
17750,-3.7609,1.4839,20.6248,255,255,255
18000,-3.7675,1.474,20.6702,255,255,255
18250,-3.7744,1.4646,20.7111,255,255,255
18500,-3.7816,1.4558,20.7479,255,255,255
18750,-3.7891,1.4475,20.7806,255,255,255
19000,-3.7968,1.4397,20.8097,255,255,255
19250,-3.8047,1.4323,20.8354,255,255,255
19500,-3.8128,1.4254,20.8579,255,255,255
19750,-3.8211,1.4188,20.8776,255,255,255
20000,-3.8295,1.4125,20.8947,255,255,255
20250,-3.8381,1.4065,20.9095,255,255,255
20500,-3.8469,1.4008,20.9223,255,255,255
20750,-3.8557,1.3954,20.9334,255,255,255
21000,-3.8646,1.3901,20.943,255,255,255
21250,-3.8735,1.3849,20.9513,255,255,255
21500,-3.8825,1.3798,20.9588,255,255,255
21750,-3.8915,1.3749,20.9658,255,255,255
22000,-3.9006,1.3701,20.9726,255,255,255
22250,-3.9097,1.3655,20.9792,255,255,255
22500,-3.9188,1.361,20.9856,255,255,255
22750,-3.928,1.3567,20.9919,255,255,255
23000,-3.9372,1.3525,20.9981,255,255,255
23250,-3.9464,1.3485,21.004,255,255,255
23500,-3.9557,1.3446,21.0098,255,255,255
23750,-3.965,1.3409,21.0154,255,255,255
24000,-3.9743,1.3374,21.0208,255,255,255
24250,-3.9836,1.334,21.026,255,255,255
24500,-3.993,1.3308,21.0311,255,255,255
24750,-4.0023,1.3277,21.0359,255,255,255
25000,-4.0117,1.3248,21.0406,255,255,255
25250,-4.0211,1.322,21.045,255,255,255
25500,-4.0304,1.3194,21.0493,255,255,255
25750,-4.0398,1.317,21.0534,255,255,255
26000,-4.0492,1.3147,21.0572,255,255,255
26250,-4.0585,1.3125,21.0609,255,255,255
26500,-4.0679,1.3106,21.0643,255,255,255
26750,-4.0772,1.3087,21.0675,255,255,255
27000,-4.0866,1.3071,21.0705,255,255,255
27250,-4.0959,1.3056,21.0733,255,255,255
27500,-4.1052,1.3042,21.0758,255,255,255
27750,-4.1145,1.303,21.0782,255,255,255
28000,-4.1237,1.302,21.0803,255,255,255
28250,-4.1329,1.3011,21.0821,255,255,255
28500,-4.1421,1.3004,21.0838,255,255,255
28750,-4.1513,1.2998,21.0852,255,255,255
29000,-4.1604,1.2994,21.0863,255,255,255
29250,-4.1695,1.2991,21.0872,255,255,255
29500,-4.1785,1.299,21.0879,255,255,255
29750,-4.1875,1.2988,21.0886,255,255,255
30000,-4.1965,1.2981,21.0896,255,255,255
30250,-4.2055,1.2968,21.0911,255,255,255
30500,-4.2146,1.2951,21.093,255,255,255
30750,-4.2236,1.2928,21.0954,255,255,255
31000,-4.2326,1.2901,21.0981,255,255,255
31250,-4.2417,1.2869,21.1012,255,255,255
31500,-4.2508,1.2832,21.1046,255,255,255
31750,-4.2598,1.2791,21.1085,255,255,255
32000,-4.2689,1.2746,21.1127,255,255,255
32250,-4.278,1.2697,21.1173,255,255,255
32500,-4.2871,1.2644,21.1222,255,255,255
32750,-4.2962,1.2587,21.1274,255,255,255
33000,-4.3053,1.2526,21.133,255,255,255
33250,-4.3145,1.2462,21.1389,255,255,255
33500,-4.3236,1.2395,21.1451,255,255,255
33750,-4.3328,1.2324,21.1515,255,255,255
34000,-4.3419,1.225,21.1583,255,255,255
34250,-4.3511,1.2173,21.1654,255,255,255
34500,-4.3602,1.2094,21.1728,255,255,255
34750,-4.3694,1.2012,21.1804,255,255,255
35000,-4.3786,1.1927,21.1882,255,255,255
35250,-4.3878,1.1841,21.1964,255,255,255
35500,-4.397,1.1751,21.2047,255,255,255
35750,-4.4062,1.166,21.2133,255,255,255
36000,-4.4155,1.1567,21.2222,255,255,255
36250,-4.4247,1.1473,21.2312,255,255,255
36500,-4.4339,1.1376,21.2404,255,255,255
36750,-4.4432,1.1279,21.2499,255,255,255
37000,-4.4525,1.1179,21.2595,255,255,255
37250,-4.4617,1.1079,21.2693,255,255,255
37500,-4.471,1.0978,21.2793,255,255,255
37750,-4.4803,1.0876,21.2894,255,255,255
38000,-4.4896,1.0773,21.2997,255,255,255
38250,-4.4989,1.067,21.3102,255,255,255
38500,-4.5082,1.0566,21.3208,255,255,255
38750,-4.5175,1.0462,21.3315,255,255,255
39000,-4.5269,1.0357,21.3423,255,255,255
39250,-4.5362,1.0253,21.3532,255,255,255
39500,-4.5456,1.0149,21.3643,255,255,255
39750,-4.5549,1.0045,21.3754,255,255,255
40000,-4.5643,0.9942,21.3867,255,255,255
40250,-4.5737,0.9839,21.398,255,255,255
40500,-4.5831,0.9737,21.4093,255,255,255
40750,-4.5925,0.9636,21.4208,255,255,255
41000,-4.6019,0.9536,21.4323,255,255,255
41250,-4.6113,0.9437,21.4438,255,255,255
41500,-4.6207,0.9339,21.4554,255,255,255
41750,-4.6301,0.9243,21.4669,255,255,255
42000,-4.6396,0.9148,21.4786,255,255,255
42250,-4.649,0.9056,21.4902,255,255,255
42500,-4.6585,0.8965,21.5018,255,255,255
42750,-4.6679,0.8876,21.5134,255,255,255
43000,-4.6774,0.8789,21.525,255,255,255
43250,-4.6869,0.8705,21.5365,255,255,255
43500,-4.6964,0.8623,21.5481,255,255,255
43750,-4.7061,0.8546,21.5596,255,255,255
44000,-4.7163,0.8474,21.5712,255,255,255
44250,-4.7269,0.8408,21.5828,255,255,255
44500,-4.7379,0.8349,21.5944,255,255,255
44750,-4.7493,0.8294,21.606,255,255,255
45000,-4.7609,0.8245,21.6175,255,255,255
45250,-4.7727,0.8201,21.6289,255,255,255
45500,-4.7847,0.8161,21.6402,255,255,255
45750,-4.7968,0.8127,21.6514,255,255,255
46000,-4.809,0.8096,21.6623,255,255,255
46250,-4.8211,0.8069,21.673,255,255,255
46500,-4.8331,0.8046,21.6835,255,255,255
46750,-4.845,0.8027,21.6937,255,255,255
47000,-4.8568,0.801,21.7035,255,255,255
47250,-4.8682,0.7997,21.7131,255,255,255
47500,-4.8794,0.7986,21.7222,255,255,255
47750,-4.8902,0.7978,21.7309,255,255,255
48000,-4.9006,0.7972,21.7392,255,255,255
48250,-4.9105,0.7968,21.7471,255,255,255
48500,-4.9198,0.7966,21.7544,255,255,255
48750,-4.9286,0.7965,21.7612,255,255,255
49000,-4.9367,0.7965,21.7674,255,255,255
49250,-4.9441,0.7966,21.773,255,255,255
49500,-4.9507,0.7968,21.778,255,255,255
49750,-4.9565,0.7971,21.7823,255,255,255
50000,-4.9614,0.7973,21.786,255,255,255
50250,-4.9654,0.7976,21.7889,255,255,255
50500,-4.9683,0.7978,21.791,255,255,255
50750,-4.9702,0.7979,21.7924,255,255,255
51000,-4.971,0.798,21.793,255,255,255
51250,-4.971,0.798,21.793,255,255,255
51500,-4.971,0.798,21.793,255,255,255
51750,-4.971,0.798,21.793,255,255,255
52000,-4.971,0.798,21.793,255,255,255
52250,-4.971,0.798,21.793,255,255,255
52500,-4.971,0.798,21.793,255,255,255
52750,-4.971,0.798,21.793,255,255,255
53000,-4.971,0.798,21.793,255,255,255
53250,-4.971,0.798,21.793,255,255,255
53500,-4.971,0.798,21.793,255,255,255
53750,-4.971,0.798,21.793,255,255,255
54000,-4.971,0.798,21.793,255,255,255
54250,-4.9721,0.7891,21.7273,255,255,255
54500,-4.9746,0.7684,21.5171,255,255,255
54750,-4.9757,0.7599,21.2355,255,255,255
55000,-4.9722,0.788,20.9587,255,255,255
55250,-4.9643,0.8521,20.7229,255,255,255
55500,-4.9563,0.9171,20.4884,255,255,255
55750,-4.9457,1.0027,20.2127,255,255,255
56000,-4.9284,1.1385,19.8368,255,255,255
56250,-4.9066,1.3096,19.39,255,255,255
56500,-4.8822,1.5006,18.903,255,255,255
56750,-4.8572,1.6957,18.4068,255,255,255
57000,-4.8337,1.8794,17.9324,255,255,255
57250,-4.8121,2.0478,17.4876,255,255,255
57500,-4.7906,2.2158,17.0436,255,255,255
57750,-4.7691,2.3838,16.5996,255,255,255
58000,-4.7476,2.5518,16.1556,255,255,255
58250,-4.7261,2.7198,15.7116,255,255,255
58500,-4.7046,2.8878,15.2676,255,255,255
58750,-4.6831,3.0558,14.8236,255,255,255
59000,-4.6616,3.2238,14.3796,255,255,255
59250,-4.6401,3.3918,13.9356,255,255,255
59500,-4.6198,3.5602,13.4858,255,255,255
59750,-4.5975,3.7348,13.0237,255,255,255
60000,-4.5753,3.9085,12.5639,255,255,255
60250,-4.554,4.076,12.1205,255,255,255
60500,-4.5341,4.2322,11.7074,255,255,255
60750,-4.518,4.3594,11.3544,255,255,255
61000,-4.508,4.4383,11.0792,255,255,255
61250,-4.5026,4.4803,10.8517,255,255,255
61500,-4.5004,4.4969,10.641,255,255,255
61750,-4.5,4.5,10.4163,255,255,255
62000,-4.5,4.5,10.1841,255,255,255
62250,-4.5,4.5,9.9938,255,255,255
62500,-4.5,4.5,9.8367,255,255,255
62750,-4.5,4.5,9.7021,255,255,255
63000,-4.5,4.5,9.5796,255,255,255
63250,-4.5,4.5,9.4589,255,255,255
63500,-4.5,4.5,9.334,255,255,255
63750,-4.5,4.5,9.209,255,255,255
64000,-4.5,4.5,9.084,255,255,255
64250,-4.5,4.5,8.959,255,255,255
64500,-4.5,4.5,8.834,255,255,255
64750,-4.5,4.5,8.709,255,255,255
65000,-4.5,4.5,8.584,255,255,255
65250,-4.5,4.5,8.459,255,255,255
65500,-4.5,4.5,8.334,255,255,255
65750,-4.5,4.5,8.208,255,255,255
66000,-4.5,4.5,8.083,255,255,255
66250,-4.5,4.5,7.958,255,255,255
66500,-4.5,4.5,7.833,255,255,255
66750,-4.5,4.5,7.708,255,255,255
67000,-4.5,4.5,7.583,255,255,255
67250,-4.5,4.5,7.458,255,255,255
67500,-4.5,4.5,7.333,255,255,255
67750,-4.5,4.5,7.208,255,255,255
68000,-4.5,4.5,7.083,255,255,255
68250,-4.5,4.5,6.958,255,255,255
68500,-4.5,4.5,6.833,255,255,255
68750,-4.5,4.5,6.708,255,255,255
69000,-4.5,4.5,6.583,255,255,255
69250,-4.5,4.5,6.458,255,255,255
69500,-4.5,4.5,6.333,255,255,255
69750,-4.5,4.5,6.208,255,255,255
70000,-4.5,4.5,6.083,255,255,255
70250,-4.5,4.5,5.958,255,255,255
70500,-4.5,4.5,5.833,255,255,255
70750,-4.5,4.5,5.708,255,255,255
71000,-4.5,4.5,5.583,255,255,255
71250,-4.5,4.5,5.458,255,255,255
71500,-4.5,4.5,5.333,255,255,255
71750,-4.5,4.5,5.208,255,255,255
72000,-4.5,4.5,5.083,255,255,255
72250,-4.5,4.5,4.958,255,255,255
72500,-4.5,4.5,4.834,255,255,255
72750,-4.5,4.5,4.709,255,255,255
73000,-4.5,4.5,4.584,255,255,255
73250,-4.5,4.5,4.459,255,255,255
73500,-4.5,4.5,4.334,255,255,255
73750,-4.5,4.5,4.209,255,255,255
74000,-4.5,4.5,4.084,255,255,255
74250,-4.5,4.5,3.959,255,255,255
74500,-4.5,4.5,3.834,255,255,255
74750,-4.5,4.5,3.709,255,255,255
75000,-4.5,4.5,3.584,255,255,255
75250,-4.5,4.5,3.459,255,255,255
75500,-4.5,4.5,3.334,255,255,255
75750,-4.5,4.5,3.209,255,255,255
76000,-4.5,4.5,3.084,255,255,255
76250,-4.5,4.5,2.959,255,255,255
76500,-4.5,4.5,2.834,255,255,255
76750,-4.5,4.5,2.709,255,255,255
77000,-4.5,4.5,2.584,255,255,255
77250,-4.5,4.5,2.459,255,255,255
77500,-4.5,4.5,2.334,255,255,255
77750,-4.5,4.5,2.209,255,255,255
78000,-4.5,4.5,2.084,255,255,255
78250,-4.5,4.5,1.959,255,255,255
78500,-4.5,4.5,1.834,255,255,255
78750,-4.5,4.5,1.709,255,255,255
79000,-4.5,4.5,1.584,255,255,255
79250,-4.5,4.5,1.459,255,255,255
79500,-4.5,4.5,1.334,255,255,255
79750,-4.5,4.5,1.209,255,255,255
80000,-4.5,4.5,1.084,255,255,255
80250,-4.5,4.5,0.959,255,255,255
80500,-4.5,4.5,0.834,255,255,255
80750,-4.5,4.5,0.709,255,255,255
81000,-4.5,4.5,0.584,255,255,255
81250,-4.5,4.5,0.4482,255,255,255
81500,-4.5,4.5,0.299,255,255,255
81750,-4.5,4.5,0.1588,255,255,255
82000,-4.5,4.5,0.0515,255,255,255
82250,-4.5,4.5,0.0012,255,255,255
82500,-4.5,4.5,0,255,255,255
82750,-4.5,4.5,0,255,255,255
83000,-4.5,4.5,0,255,255,255
83250,-4.5,4.5,0,255,255,255
83500,-4.5,4.5,0,255,255,255
83750,-4.5,4.5,0,255,255,255
84000,-4.5,4.5,0,255,255,255
84250,-4.5,4.5,0,255,255,255
84500,-4.5,4.5,0,255,255,255
84750,-4.5,4.5,0,255,255,255
85000,-4.5,4.5,0,255,255,255
85250,-4.5,4.5,0,255,255,255
85500,-4.5,4.5,0,255,255,255
85750,-4.5,4.5,0,255,255,255
86000,-4.5,4.5,0,255,255,255
86250,-4.5,4.5,0,255,255,255
86500,-4.5,4.5,0,255,255,255
86750,-4.5,4.5,0,255,255,255
87000,-4.5,4.5,0,255,255,255
87250,-4.5,4.5,0,255,255,255
87500,-4.5,4.5,0,255,255,255
87750,-4.5,4.5,0,255,255,255
88000,-4.5,4.5,0,255,255,255
88250,-4.5,4.5,0,255,255,255
88500,-4.5,4.5,0,255,255,255
88750,-4.5,4.5,0,255,255,255
89000,-4.5,4.5,0,255,255,255
89250,-4.5,4.5,0,255,255,255
89500,-4.5,4.5,0,255,255,255
89750,-4.5,4.5,0,255,255,255
90000,-4.5,4.5,0,255,255,255
90250,-4.5,4.5,0,255,255,255
90500,-4.5,4.5,0,255,255,255
90750,-4.5,4.5,0,255,255,255
91000,-4.5,4.5,0,255,255,255
91250,-4.5,4.5,0,255,255,255
91500,-4.5,4.5,0,255,255,255
91750,-4.5,4.5,0,255,255,255
92000,-4.5,4.5,0,255,255,255
92250,-4.5,4.5,0,255,255,255
92500,-4.5,4.5,0,255,255,255
92750,-4.5,4.5,0,255,255,255
93000,-4.5,4.5,0,255,255,255
93250,-4.5,4.5,0,255,255,255
93500,-4.5,4.5,0,255,255,255
93750,-4.5,4.5,0,255,255,255
94000,-4.5,4.5,0,255,255,255
94250,-4.5,4.5,0,255,255,255
94500,-4.5,4.5,0,255,255,255
94750,-4.5,4.5,0,255,255,255
95000,-4.5,4.5,0,255,255,255
95250,-4.5,4.5,0,255,255,255
95500,-4.5,4.5,0,255,255,255
95750,-4.5,4.5,0,255,255,255
96000,-4.5,4.5,0,255,255,255
96250,-4.5,4.5,0,255,255,255
96500,-4.5,4.5,0,255,255,255
96750,-4.5,4.5,0,255,255,255
97000,-4.5,4.5,0,255,255,255
97250,-4.5,4.5,0,255,255,255
97500,-4.5,4.5,0,255,255,255
97750,-4.5,4.5,0,255,255,255
98000,-4.5,4.5,0,255,255,255
98250,-4.5,4.5,0,255,255,255
98500,-4.5,4.5,0,255,255,255
98750,-4.5,4.5,0,255,255,255
99000,-4.5,4.5,0,255,255,255
99250,-4.5,4.5,0,255,255,255
99500,-4.5,4.5,0,255,255,255
99750,-4.5,4.5,0,255,255,255
100000,-4.5,4.5,0,255,255,255
100250,-4.5,4.5,0,255,255,255
100500,-4.5,4.5,0,255,255,255
100750,-4.5,4.5,0,255,255,255
101000,-4.5,4.5,0,255,255,255
101250,-4.5,4.5,0,255,255,255
101500,-4.5,4.5,0,255,255,255
101750,-4.5,4.5,0,255,255,255
102000,-4.5,4.5,0,255,255,255
102250,-4.5,4.5,0,255,255,255
102500,-4.5,4.5,0,255,255,255
102750,-4.5,4.5,0,255,255,255
103000,-4.5,4.5,0,255,255,255
103250,-4.5,4.5,0,255,255,255
103500,-4.5,4.5,0,255,255,255
103750,-4.5,4.5,0,255,255,255
104000,-4.5,4.5,0,255,255,255
