Time [msec],x [m],y [m],z [m],Red,Green,Blue
0,4.5,-10.5,0,255,255,255
250,4.4958,-10.4918,0.0171,255,255,255
500,4.4799,-10.461,0.0813,255,255,255
750,4.4529,-10.4086,0.1905,255,255,255
1000,4.4155,-10.3359,0.3418,255,255,255
1250,4.3683,-10.2444,0.5325,255,255,255
1500,4.3121,-10.1354,0.7597,255,255,255
1750,4.2476,-10.0102,1.0206,255,255,255
2000,4.1754,-9.8702,1.3124,255,255,255
2250,4.0962,-9.7167,1.6323,255,255,255
2500,4.0108,-9.5512,1.9773,255,255,255
2750,3.9199,-9.375,2.3448,255,255,255
3000,3.8241,-9.1894,2.7319,255,255,255
3250,3.7241,-8.9957,3.1357,255,255,255
3500,3.6207,-8.7955,3.5535,255,255,255
3750,3.5145,-8.5899,3.9824,255,255,255
4000,3.4062,-8.3804,4.4196,255,255,255
4250,3.2966,-8.1684,4.8623,255,255,255
4500,3.1863,-7.9551,5.3076,255,255,255
4750,3.0759,-7.742,5.7527,255,255,255
5000,2.9664,-7.5304,6.1949,255,255,255
5250,2.8582,-7.3216,6.6312,255,255,255
5500,2.7521,-7.1171,7.0589,255,255,255
5750,2.6488,-6.9181,7.4751,255,255,255
6000,2.549,-6.7261,7.8771,255,255,255
6250,2.4535,-6.5423,8.2619,255,255,255
6500,2.3628,-6.3683,8.6268,255,255,255
6750,2.2777,-6.2052,8.969,255,255,255
7000,2.1971,-6.051,9.2926,255,255,255
7250,2.1182,-5.8998,9.6095,255,255,255
7500,2.0408,-5.7516,9.9198,255,255,255
7750,1.9651,-5.6063,10.2235,255,255,255
8000,1.8909,-5.464,10.5205,255,255,255
8250,1.8184,-5.3247,10.8106,255,255,255
8500,1.7476,-5.1885,11.0938,255,255,255
8750,1.6785,-5.0555,11.37,255,255,255
9000,1.611,-4.9256,11.639,255,255,255
9250,1.5454,-4.7989,11.9009,255,255,255
9500,1.4815,-4.6755,12.1554,255,255,255
9750,1.4193,-4.5554,12.4026,255,255,255
10000,1.359,-4.4386,12.6423,255,255,255
10250,1.3005,-4.3252,12.8745,255,255,255
10500,1.2439,-4.2152,13.099,255,255,255
10750,1.1892,-4.1087,13.3157,255,255,255
11000,1.1364,-4.0057,13.5246,255,255,255
11250,1.0855,-3.9062,13.7255,255,255,255
11500,1.0365,-3.8104,13.9184,255,255,255
11750,0.9896,-3.7181,14.1032,255,255,255
12000,0.9446,-3.6296,14.2798,255,255,255
12250,0.9017,-3.5447,14.4481,255,255,255
12500,0.8608,-3.4636,14.608,255,255,255
12750,0.822,-3.3863,14.7594,255,255,255
13000,0.7853,-3.3129,14.9022,255,255,255
13250,0.7507,-3.2433,15.0364,255,255,255
13500,0.7182,-3.1776,15.1618,255,255,255
13750,0.6879,-3.1159,15.2785,255,255,255
14000,0.6596,-3.0577,15.387,255,255,255
14250,0.6333,-3.0031,15.4875,255,255,255
14500,0.6088,-2.9519,15.5802,255,255,255
14750,0.5862,-2.904,15.6654,255,255,255
15000,0.5654,-2.8593,15.7434,255,255,255
15250,0.5462,-2.8177,15.8144,255,255,255
15500,0.5287,-2.7791,15.8786,255,255,255
15750,0.5128,-2.7434,15.9364,255,255,255
16000,0.4985,-2.7104,15.9879,255,255,255
16250,0.4856,-2.6802,16.0334,255,255,255
16500,0.474,-2.6524,16.0731,255,255,255
16750,0.4639,-2.6272,16.1074,255,255,255
17000,0.455,-2.6043,16.1364,255,255,255
17250,0.4473,-2.5836,16.1604,255,255,255
17500,0.4408,-2.5651,16.1796,255,255,255
17750,0.4353,-2.5486,16.1944,255,255,255
18000,0.4309,-2.534,16.2049,255,255,255
18250,0.4275,-2.5212,16.2114,255,255,255
18500,0.425,-2.5102,16.2142,255,255,255
18750,0.4233,-2.5007,16.2135,255,255,255
19000,0.4224,-2.4928,16.2095,255,255,255
19250,0.4222,-2.4862,16.2025,255,255,255
19500,0.4227,-2.4809,16.1928,255,255,255
19750,0.4238,-2.4768,16.1806,255,255,255
20000,0.4254,-2.4738,16.1661,255,255,255
20250,0.4275,-2.4717,16.1496,255,255,255
20500,0.43,-2.4705,16.1314,255,255,255
20750,0.4329,-2.47,16.1117,255,255,255
21000,0.436,-2.4701,16.0907,255,255,255
21250,0.4394,-2.4708,16.0688,255,255,255
21500,0.4427,-2.4719,16.0463,255,255,255
21750,0.4456,-2.473,16.024,255,255,255
22000,0.448,-2.4742,16.002,255,255,255
22250,0.4499,-2.4756,15.9803,255,255,255
22500,0.4514,-2.4772,15.9591,255,255,255
22750,0.4526,-2.4789,15.9385,255,255,255
23000,0.4533,-2.481,15.9186,255,255,255
23250,0.4538,-2.4833,15.8994,255,255,255
23500,0.4539,-2.4859,15.8812,255,255,255
23750,0.4538,-2.4889,15.8639,255,255,255
24000,0.4534,-2.4923,15.8477,255,255,255
24250,0.4528,-2.496,15.8327,255,255,255
24500,0.452,-2.5002,15.8189,255,255,255
24750,0.451,-2.5049,15.8066,255,255,255
25000,0.4498,-2.5101,15.7958,255,255,255
25250,0.4485,-2.5159,15.7865,255,255,255
25500,0.4472,-2.5222,15.779,255,255,255
25750,0.4457,-2.5291,15.7733,255,255,255
26000,0.4443,-2.5367,15.7694,255,255,255
26250,0.4428,-2.5448,15.7672,255,255,255
26500,0.4413,-2.5531,15.7659,255,255,255
26750,0.4398,-2.5617,15.7653,255,255,255
27000,0.4383,-2.5706,15.7654,255,255,255
27250,0.4368,-2.5796,15.7661,255,255,255
27500,0.4353,-2.5888,15.7674,255,255,255
27750,0.4338,-2.5982,15.7692,255,255,255
28000,0.4324,-2.6077,15.7714,255,255,255
28250,0.4309,-2.6173,15.7738,255,255,255
28500,0.4294,-2.6269,15.7766,255,255,255
28750,0.4279,-2.6366,15.7795,255,255,255
29000,0.4265,-2.6464,15.7826,255,255,255
29250,0.425,-2.6561,15.7856,255,255,255
29500,0.4236,-2.6659,15.7886,255,255,255
29750,0.4221,-2.6755,15.7915,255,255,255
30000,0.4206,-2.6852,15.7943,255,255,255
30250,0.4192,-2.6947,15.7967,255,255,255
30500,0.4177,-2.7041,15.7988,255,255,255
30750,0.4162,-2.7133,15.8005,255,255,255
31000,0.4148,-2.7224,15.8017,255,255,255
31250,0.4133,-2.7313,15.8024,255,255,255
31500,0.4119,-2.74,15.8024,255,255,255
31750,0.4104,-2.7485,15.8017,255,255,255
32000,0.4089,-2.7566,15.8002,255,255,255
32250,0.4075,-2.7645,15.7979,255,255,255
32500,0.406,-2.7721,15.7946,255,255,255
32750,0.4045,-2.7793,15.7903,255,255,255
33000,0.4031,-2.7862,15.7849,255,255,255
33250,0.4016,-2.7927,15.7784,255,255,255
33500,0.4001,-2.7988,15.7707,255,255,255
33750,0.3987,-2.8044,15.7616,255,255,255
34000,0.3972,-2.8096,15.7512,255,255,255
34250,0.3957,-2.8143,15.7393,255,255,255
34500,0.3942,-2.8185,15.7259,255,255,255
34750,0.3927,-2.8222,15.7109,255,255,255
35000,0.3912,-2.8253,15.6943,255,255,255
35250,0.3897,-2.8278,15.6758,255,255,255
35500,0.3883,-2.8297,15.6556,255,255,255
35750,0.3868,-2.8307,15.6337,255,255,255
36000,0.3853,-2.8304,15.6108,255,255,255
36250,0.3838,-2.8287,15.5868,255,255,255
36500,0.3823,-2.8257,15.5618,255,255,255
36750,0.3808,-2.8217,15.5359,255,255,255
37000,0.3794,-2.8166,15.5092,255,255,255
37250,0.3779,-2.8105,15.4816,255,255,255
37500,0.3765,-2.8036,15.4534,255,255,255
37750,0.375,-2.7958,15.4244,255,255,255
38000,0.3736,-2.7874,15.3948,255,255,255
38250,0.3721,-2.7784,15.3646,255,255,255
38500,0.3707,-2.7688,15.3339,255,255,255
38750,0.3693,-2.7589,15.3027,255,255,255
39000,0.3678,-2.7486,15.2711,255,255,255
39250,0.3664,-2.738,15.2392,255,255,255
39500,0.365,-2.7273,15.207,255,255,255
39750,0.3635,-2.7165,15.1745,255,255,255
40000,0.3621,-2.7057,15.1419,255,255,255
40250,0.3607,-2.695,15.1091,255,255,255
40500,0.3592,-2.6845,15.0763,255,255,255
40750,0.3578,-2.6743,15.0435,255,255,255
41000,0.3564,-2.6645,15.0107,255,255,255
41250,0.3549,-2.6551,14.9781,255,255,255
41500,0.3535,-2.6462,14.9455,255,255,255
41750,0.352,-2.638,14.9133,255,255,255
42000,0.3506,-2.6306,14.8813,255,255,255
42250,0.3491,-2.6239,14.8496,255,255,255
42500,0.3477,-2.6181,14.8183,255,255,255
42750,0.3462,-2.6133,14.7875,255,255,255
43000,0.3447,-2.6096,14.7571,255,255,255
43250,0.3432,-2.6071,14.7273,255,255,255
43500,0.3417,-2.6058,14.6982,255,255,255
43750,0.3403,-2.6059,14.6697,255,255,255
44000,0.3387,-2.6075,14.642,255,255,255
44250,0.3371,-2.611,14.615,255,255,255
44500,0.3354,-2.6163,14.5889,255,255,255
44750,0.3337,-2.6232,14.5635,255,255,255
45000,0.3319,-2.6316,14.539,255,255,255
45250,0.33,-2.6412,14.5153,255,255,255
45500,0.3281,-2.6521,14.4924,255,255,255
45750,0.3262,-2.664,14.4705,255,255,255
46000,0.3243,-2.6768,14.4494,255,255,255
46250,0.3223,-2.6904,14.4292,255,255,255
46500,0.3204,-2.7045,14.4099,255,255,255
46750,0.3185,-2.7192,14.3915,255,255,255
47000,0.3166,-2.7342,14.374,255,255,255
47250,0.3148,-2.7494,14.3575,255,255,255
47500,0.313,-2.7647,14.3419,255,255,255
47750,0.3112,-2.7799,14.3274,255,255,255
48000,0.3095,-2.7948,14.3137,255,255,255
48250,0.3079,-2.8094,14.3011,255,255,255
48500,0.3064,-2.8235,14.2895,255,255,255
48750,0.305,-2.837,14.279,255,255,255
49000,0.3036,-2.8497,14.2694,255,255,255
49250,0.3024,-2.8614,14.2609,255,255,255
49500,0.3013,-2.8721,14.2535,255,255,255
49750,0.3004,-2.8816,14.2472,255,255,255
50000,0.2996,-2.8897,14.2419,255,255,255
50250,0.2989,-2.8964,14.2377,255,255,255
50500,0.2984,-2.9014,14.2347,255,255,255
50750,0.2981,-2.9046,14.2328,255,255,255
51000,0.298,-2.906,14.232,255,255,255
51250,0.298,-2.906,14.232,255,255,255
51500,0.298,-2.906,14.232,255,255,255
51750,0.298,-2.906,14.232,255,255,255
52000,0.298,-2.906,14.232,255,255,255
52250,0.298,-2.906,14.232,255,255,255
52500,0.298,-2.906,14.232,255,255,255
52750,0.298,-2.906,14.232,255,255,255
53000,0.298,-2.906,14.232,255,255,255
53250,0.298,-2.906,14.232,255,255,255
53500,0.298,-2.906,14.232,255,255,255
53750,0.298,-2.906,14.232,255,255,255
54000,0.298,-2.906,14.232,255,255,255
54250,0.2925,-2.8961,14.1628,255,255,255
54500,0.2798,-2.8733,13.9445,255,255,255
54750,0.2746,-2.8638,13.6596,255,255,255
55000,0.2918,-2.8949,13.3937,255,255,255
55250,0.3527,-3.0046,13.2228,255,255,255
55500,0.4753,-3.2256,13.1277,255,255,255
55750,0.6599,-3.559,13.0392,255,255,255
56000,0.917,-4.0238,12.9032,255,255,255
56250,1.2381,-4.6044,12.7328,255,255,255
56500,1.5737,-5.211,12.5548,255,255,255
56750,1.8938,-5.7891,12.385,255,255,255
57000,2.2133,-6.3661,12.2155,255,255,255
57250,2.5328,-6.9431,12.046,255,255,255
57500,2.8523,-7.5201,11.8765,255,255,255
57750,3.1718,-8.0971,11.707,255,255,255
58000,3.4913,-8.6741,11.5375,255,255,255
58250,3.7941,-9.2235,11.3872,255,255,255
58500,4.0533,-9.692,11.2789,255,255,255
58750,4.2603,-10.0662,11.1829,255,255,255
59000,4.4088,-10.3349,11.0694,255,255,255
59250,4.4927,-10.4868,10.9087,255,255,255
59500,4.5196,-10.5355,10.6834,255,255,255
59750,4.5202,-10.5366,10.4249,255,255,255
60000,4.5091,-10.5164,10.1725,255,255,255
60250,4.5003,-10.5005,9.9655,255,255,255
60500,4.5,-10.5,9.811,255,255,255
60750,4.5,-10.5,9.6664,255,255,255
61000,4.5,-10.5,9.5293,255,255,255
61250,4.5,-10.5,9.3988,255,255,255
61500,4.5,-10.5,9.2736,255,255,255
61750,4.5,-10.5,9.1527,255,255,255
62000,4.5,-10.5,9.035,255,255,255
62250,4.5,-10.5,8.9194,255,255,255
62500,4.5,-10.5,8.8046,255,255,255
62750,4.5,-10.5,8.6898,255,255,255
63000,4.5,-10.5,8.5736,255,255,255
63250,4.5,-10.5,8.455,255,255,255
63500,4.5,-10.5,8.3329,255,255,255
63750,4.5,-10.5,8.208,255,255,255
64000,4.5,-10.5,8.083,255,255,255
64250,4.5,-10.5,7.958,255,255,255
64500,4.5,-10.5,7.833,255,255,255
64750,4.5,-10.5,7.708,255,255,255
65000,4.5,-10.5,7.583,255,255,255
65250,4.5,-10.5,7.458,255,255,255
65500,4.5,-10.5,7.333,255,255,255
65750,4.5,-10.5,7.208,255,255,255
66000,4.5,-10.5,7.083,255,255,255
66250,4.5,-10.5,6.958,255,255,255
66500,4.5,-10.5,6.833,255,255,255
66750,4.5,-10.5,6.708,255,255,255
67000,4.5,-10.5,6.583,255,255,255
67250,4.5,-10.5,6.458,255,255,255
67500,4.5,-10.5,6.333,255,255,255
67750,4.5,-10.5,6.208,255,255,255
68000,4.5,-10.5,6.083,255,255,255
68250,4.5,-10.5,5.958,255,255,255
68500,4.5,-10.5,5.833,255,255,255
68750,4.5,-10.5,5.708,255,255,255
69000,4.5,-10.5,5.583,255,255,255
69250,4.5,-10.5,5.458,255,255,255
69500,4.5,-10.5,5.333,255,255,255
69750,4.5,-10.5,5.208,255,255,255
70000,4.5,-10.5,5.083,255,255,255
70250,4.5,-10.5,4.958,255,255,255
70500,4.5,-10.5,4.833,255,255,255
70750,4.5,-10.5,4.708,255,255,255
71000,4.5,-10.5,4.584,255,255,255
71250,4.5,-10.5,4.459,255,255,255
71500,4.5,-10.5,4.334,255,255,255
71750,4.5,-10.5,4.209,255,255,255
72000,4.5,-10.5,4.084,255,255,255
72250,4.5,-10.5,3.959,255,255,255
72500,4.5,-10.5,3.834,255,255,255
72750,4.5,-10.5,3.709,255,255,255
73000,4.5,-10.5,3.584,255,255,255
73250,4.5,-10.5,3.459,255,255,255
73500,4.5,-10.5,3.334,255,255,255
73750,4.5,-10.5,3.209,255,255,255
74000,4.5,-10.5,3.084,255,255,255
74250,4.5,-10.5,2.959,255,255,255
74500,4.5,-10.5,2.834,255,255,255
74750,4.5,-10.5,2.709,255,255,255
75000,4.5,-10.5,2.584,255,255,255
75250,4.5,-10.5,2.459,255,255,255
75500,4.5,-10.5,2.334,255,255,255
75750,4.5,-10.5,2.209,255,255,255
76000,4.5,-10.5,2.084,255,255,255
76250,4.5,-10.5,1.959,255,255,255
76500,4.5,-10.5,1.834,255,255,255
76750,4.5,-10.5,1.709,255,255,255
77000,4.5,-10.5,1.584,255,255,255
77250,4.5,-10.5,1.458,255,255,255
77500,4.5,-10.5,1.333,255,255,255
77750,4.5,-10.5,1.208,255,255,255
78000,4.5,-10.5,1.083,255,255,255
78250,4.5,-10.5,0.958,255,255,255
78500,4.5,-10.5,0.833,255,255,255
78750,4.5,-10.5,0.708,255,255,255
79000,4.5,-10.5,0.583,255,255,255
79250,4.5,-10.5,0.4482,255,255,255
79500,4.5,-10.5,0.299,255,255,255
79750,4.5,-10.5,0.1588,255,255,255
80000,4.5,-10.5,0.0515,255,255,255
80250,4.5,-10.5,0.0012,255,255,255
80500,4.5,-10.5,0,255,255,255
80750,4.5,-10.5,0,255,255,255
81000,4.5,-10.5,0,255,255,255
81250,4.5,-10.5,0,255,255,255
81500,4.5,-10.5,0,255,255,255
81750,4.5,-10.5,0,255,255,255
82000,4.5,-10.5,0,255,255,255
82250,4.5,-10.5,0,255,255,255
82500,4.5,-10.5,0,255,255,255
82750,4.5,-10.5,0,255,255,255
83000,4.5,-10.5,0,255,255,255
83250,4.5,-10.5,0,255,255,255
83500,4.5,-10.5,0,255,255,255
83750,4.5,-10.5,0,255,255,255
84000,4.5,-10.5,0,255,255,255
84250,4.5,-10.5,0,255,255,255
84500,4.5,-10.5,0,255,255,255
84750,4.5,-10.5,0,255,255,255
85000,4.5,-10.5,0,255,255,255
85250,4.5,-10.5,0,255,255,255
85500,4.5,-10.5,0,255,255,255
85750,4.5,-10.5,0,255,255,255
86000,4.5,-10.5,0,255,255,255
86250,4.5,-10.5,0,255,255,255
86500,4.5,-10.5,0,255,255,255
86750,4.5,-10.5,0,255,255,255
87000,4.5,-10.5,0,255,255,255
87250,4.5,-10.5,0,255,255,255
87500,4.5,-10.5,0,255,255,255
87750,4.5,-10.5,0,255,255,255
88000,4.5,-10.5,0,255,255,255
88250,4.5,-10.5,0,255,255,255
88500,4.5,-10.5,0,255,255,255
88750,4.5,-10.5,0,255,255,255
89000,4.5,-10.5,0,255,255,255
89250,4.5,-10.5,0,255,255,255
89500,4.5,-10.5,0,255,255,255
89750,4.5,-10.5,0,255,255,255
90000,4.5,-10.5,0,255,255,255
90250,4.5,-10.5,0,255,255,255
90500,4.5,-10.5,0,255,255,255
90750,4.5,-10.5,0,255,255,255
91000,4.5,-10.5,0,255,255,255
91250,4.5,-10.5,0,255,255,255
91500,4.5,-10.5,0,255,255,255
91750,4.5,-10.5,0,255,255,255
92000,4.5,-10.5,0,255,255,255
92250,4.5,-10.5,0,255,255,255
92500,4.5,-10.5,0,255,255,255
92750,4.5,-10.5,0,255,255,255
93000,4.5,-10.5,0,255,255,255
93250,4.5,-10.5,0,255,255,255
93500,4.5,-10.5,0,255,255,255
93750,4.5,-10.5,0,255,255,255
94000,4.5,-10.5,0,255,255,255
94250,4.5,-10.5,0,255,255,255
94500,4.5,-10.5,0,255,255,255
94750,4.5,-10.5,0,255,255,255
95000,4.5,-10.5,0,255,255,255
95250,4.5,-10.5,0,255,255,255
95500,4.5,-10.5,0,255,255,255
95750,4.5,-10.5,0,255,255,255
96000,4.5,-10.5,0,255,255,255
96250,4.5,-10.5,0,255,255,255
96500,4.5,-10.5,0,255,255,255
96750,4.5,-10.5,0,255,255,255
97000,4.5,-10.5,0,255,255,255
97250,4.5,-10.5,0,255,255,255
97500,4.5,-10.5,0,255,255,255
97750,4.5,-10.5,0,255,255,255
98000,4.5,-10.5,0,255,255,255
98250,4.5,-10.5,0,255,255,255
98500,4.5,-10.5,0,255,255,255
98750,4.5,-10.5,0,255,255,255
99000,4.5,-10.5,0,255,255,255
99250,4.5,-10.5,0,255,255,255
99500,4.5,-10.5,0,255,255,255
99750,4.5,-10.5,0,255,255,255
100000,4.5,-10.5,0,255,255,255
100250,4.5,-10.5,0,255,255,255
100500,4.5,-10.5,0,255,255,255
100750,4.5,-10.5,0,255,255,255
101000,4.5,-10.5,0,255,255,255
101250,4.5,-10.5,0,255,255,255
101500,4.5,-10.5,0,255,255,255
101750,4.5,-10.5,0,255,255,255
102000,4.5,-10.5,0,255,255,255
102250,4.5,-10.5,0,255,255,255
102500,4.5,-10.5,0,255,255,255
102750,4.5,-10.5,0,255,255,255
103000,4.5,-10.5,0,255,255,255
103250,4.5,-10.5,0,255,255,255
103500,4.5,-10.5,0,255,255,255
103750,4.5,-10.5,0,255,255,255
104000,4.5,-10.5,0,255,255,255
