Time [msec],x [m],y [m],z [m],Red,Green,Blue
0,-10.5,-4.5,0,255,255,255
250,-10.4927,-4.498,0.0247,255,255,255
500,-10.4652,-4.4903,0.1176,255,255,255
750,-10.4185,-4.4772,0.2756,255,255,255
1000,-10.3537,-4.459,0.4946,255,255,255
1250,-10.2721,-4.4361,0.7706,255,255,255
1500,-10.1749,-4.4089,1.0993,255,255,255
1750,-10.0633,-4.3776,1.4769,255,255,255
2000,-9.9384,-4.3426,1.8991,255,255,255
2250,-9.8016,-4.3042,2.362,255,255,255
2500,-9.654,-4.2628,2.8613,255,255,255
2750,-9.4969,-4.2188,3.3931,255,255,255
3000,-9.3313,-4.1724,3.9532,255,255,255
3250,-9.1587,-4.1239,4.5375,255,255,255
3500,-8.9801,-4.0738,5.1421,255,255,255
3750,-8.7967,-4.0224,5.7627,255,255,255
4000,-8.6099,-3.97,6.3953,255,255,255
4250,-8.4207,-3.9169,7.0359,255,255,255
4500,-8.2304,-3.8635,7.6802,255,255,255
4750,-8.0403,-3.8101,8.3244,255,255,255
5000,-7.8515,-3.7571,8.9642,255,255,255
5250,-7.6652,-3.7048,9.5956,255,255,255
5500,-7.4826,-3.6535,10.2144,255,255,255
5750,-7.305,-3.6036,10.8167,255,255,255
6000,-7.1336,-3.5555,11.3984,255,255,255
6250,-6.9696,-3.5093,11.9552,255,255,255
6500,-6.8141,-3.4656,12.4832,255,255,255
6750,-6.6684,-3.4246,12.9783,255,255,255
7000,-6.5307,-3.386,13.4469,255,255,255
7250,-6.3959,-3.3488,13.9064,255,255,255
7500,-6.2639,-3.313,14.3571,255,255,255
7750,-6.1347,-3.2785,14.7989,255,255,255
8000,-6.0083,-3.2455,15.2316,255,255,255
8250,-5.8849,-3.2139,15.6551,255,255,255
8500,-5.7644,-3.1838,16.0694,255,255,255
8750,-5.6469,-3.1551,16.4741,255,255,255
9000,-5.5324,-3.128,16.8693,255,255,255
9250,-5.4209,-3.1024,17.2548,255,255,255
9500,-5.3125,-3.0783,17.6304,255,255,255
9750,-5.2072,-3.0558,17.996,255,255,255
10000,-5.1051,-3.0349,18.3515,255,255,255
10250,-5.0062,-3.0155,18.6968,255,255,255
10500,-4.9104,-2.9979,19.0317,255,255,255
10750,-4.818,-2.9819,19.3561,255,255,255
11000,-4.7288,-2.9675,19.6698,255,255,255
11250,-4.643,-2.9549,19.9728,255,255,255
11500,-4.5605,-2.944,20.2648,255,255,255
11750,-4.4814,-2.9348,20.5458,255,255,255
12000,-4.4058,-2.9274,20.8156,255,255,255
12250,-4.3336,-2.9217,21.0742,255,255,255
12500,-4.265,-2.9179,21.3213,255,255,255
12750,-4.1999,-2.9159,21.5568,255,255,255
13000,-4.1383,-2.9158,21.7806,255,255,255
13250,-4.0804,-2.9175,21.9926,255,255,255
13500,-4.0261,-2.9211,22.1927,255,255,255
13750,-3.9753,-2.9266,22.3814,255,255,255
14000,-3.928,-2.9338,22.5591,255,255,255
14250,-3.8841,-2.9428,22.726,255,255,255
14500,-3.8434,-2.9534,22.8825,255,255,255
14750,-3.8058,-2.9656,23.0289,255,255,255
15000,-3.7713,-2.9793,23.1656,255,255,255
15250,-3.7397,-2.9946,23.2929,255,255,255
15500,-3.7109,-3.0112,23.4111,255,255,255
15750,-3.6849,-3.0293,23.5206,255,255,255
16000,-3.6615,-3.0487,23.6217,255,255,255
16250,-3.6406,-3.0693,23.7147,255,255,255
16500,-3.6222,-3.0911,23.8001,255,255,255
16750,-3.606,-3.1141,23.878,255,255,255
17000,-3.5921,-3.1382,23.9489,255,255,255
17250,-3.5803,-3.1633,24.0131,255,255,255
17500,-3.5705,-3.1894,24.0709,255,255,255
17750,-3.5626,-3.2164,24.1226,255,255,255
18000,-3.5565,-3.2443,24.1687,255,255,255
18250,-3.5521,-3.273,24.2094,255,255,255
18500,-3.5492,-3.3024,24.245,255,255,255
18750,-3.5479,-3.3325,24.276,255,255,255
19000,-3.548,-3.3633,24.3026,255,255,255
19250,-3.5494,-3.3946,24.3252,255,255,255
19500,-3.5519,-3.4265,24.3441,255,255,255
19750,-3.5556,-3.4588,24.3596,255,255,255
20000,-3.5602,-3.4915,24.3722,255,255,255
20250,-3.5656,-3.5246,24.382,255,255,255
20500,-3.5719,-3.558,24.3895,255,255,255
20750,-3.5788,-3.5916,24.395,255,255,255
21000,-3.5863,-3.6254,24.3988,255,255,255
21250,-3.5943,-3.6593,24.4013,255,255,255
21500,-3.6026,-3.6933,24.4028,255,255,255
21750,-3.6111,-3.7271,24.404,255,255,255
22000,-3.6199,-3.7604,24.4057,255,255,255
22250,-3.6287,-3.793,24.408,255,255,255
22500,-3.6378,-3.8249,24.4107,255,255,255
22750,-3.6469,-3.856,24.414,255,255,255
23000,-3.6562,-3.8863,24.4177,255,255,255
23250,-3.6656,-3.9157,24.422,255,255,255
23500,-3.6751,-3.9442,24.4267,255,255,255
23750,-3.6848,-3.9716,24.4319,255,255,255
24000,-3.6945,-3.9979,24.4375,255,255,255
24250,-3.7043,-4.023,24.4436,255,255,255
24500,-3.7142,-4.0469,24.4501,255,255,255
24750,-3.7241,-4.0695,24.457,255,255,255
25000,-3.7341,-4.0908,24.4644,255,255,255
25250,-3.7442,-4.1106,24.4722,255,255,255
25500,-3.7543,-4.129,24.4803,255,255,255
25750,-3.7644,-4.1457,24.4889,255,255,255
26000,-3.7745,-4.1609,24.4978,255,255,255
26250,-3.7847,-4.1743,24.5071,255,255,255
26500,-3.7948,-4.186,24.5168,255,255,255
26750,-3.805,-4.1959,24.5268,255,255,255
27000,-3.8151,-4.2039,24.5371,255,255,255
27250,-3.8252,-4.2099,24.5478,255,255,255
27500,-3.8353,-4.214,24.5588,255,255,255
27750,-3.8453,-4.2159,24.5701,255,255,255
28000,-3.8553,-4.2163,24.5816,255,255,255
28250,-3.8654,-4.2166,24.5932,255,255,255
28500,-3.8754,-4.2169,24.6049,255,255,255
28750,-3.8855,-4.2171,24.6166,255,255,255
29000,-3.8956,-4.2175,24.6283,255,255,255
29250,-3.9058,-4.2182,24.64,255,255,255
29500,-3.9159,-4.2191,24.6517,255,255,255
29750,-3.9261,-4.2204,24.6634,255,255,255
30000,-3.9363,-4.2223,24.6749,255,255,255
30250,-3.9465,-4.2247,24.6864,255,255,255
30500,-3.9567,-4.2278,24.6978,255,255,255
30750,-3.9669,-4.2317,24.709,255,255,255
31000,-3.9772,-4.2365,24.72,255,255,255
31250,-3.9874,-4.2422,24.7309,255,255,255
31500,-3.9977,-4.249,24.7416,255,255,255
31750,-4.0079,-4.257,24.752,255,255,255
32000,-4.0181,-4.2661,24.7622,255,255,255
32250,-4.0284,-4.2766,24.7721,255,255,255
32500,-4.0386,-4.2886,24.7817,255,255,255
32750,-4.0488,-4.302,24.791,255,255,255
33000,-4.0591,-4.3171,24.8,255,255,255
33250,-4.0693,-4.3339,24.8086,255,255,255
33500,-4.0795,-4.3524,24.8169,255,255,255
33750,-4.0896,-4.3729,24.8247,255,255,255
34000,-4.0998,-4.3953,24.8321,255,255,255
34250,-4.1099,-4.4198,24.839,255,255,255
34500,-4.1201,-4.4465,24.8455,255,255,255
34750,-4.1302,-4.4754,24.8515,255,255,255
35000,-4.1403,-4.5067,24.857,255,255,255
35250,-4.1503,-4.5404,24.8619,255,255,255
35500,-4.1603,-4.5767,24.8663,255,255,255
35750,-4.1703,-4.6153,24.8697,255,255,255
36000,-4.1804,-4.6557,24.8713,255,255,255
36250,-4.1904,-4.6979,24.8713,255,255,255
36500,-4.2005,-4.7416,24.8697,255,255,255
36750,-4.2107,-4.7869,24.8666,255,255,255
37000,-4.2208,-4.8337,24.8623,255,255,255
37250,-4.231,-4.8817,24.8568,255,255,255
37500,-4.2412,-4.931,24.8502,255,255,255
37750,-4.2514,-4.9814,24.8426,255,255,255
38000,-4.2616,-5.0328,24.8342,255,255,255
38250,-4.2718,-5.0851,24.825,255,255,255
38500,-4.282,-5.1383,24.8152,255,255,255
38750,-4.2923,-5.1922,24.8049,255,255,255
39000,-4.3025,-5.2468,24.7943,255,255,255
39250,-4.3128,-5.3018,24.7834,255,255,255
39500,-4.323,-5.3573,24.7723,255,255,255
39750,-4.3333,-5.4132,24.7612,255,255,255
40000,-4.3435,-5.4692,24.7501,255,255,255
40250,-4.3538,-5.5255,24.7393,255,255,255
40500,-4.364,-5.5817,24.7287,255,255,255
40750,-4.3742,-5.6379,24.7186,255,255,255
41000,-4.3844,-5.6939,24.7091,255,255,255
41250,-4.3946,-5.7497,24.7002,255,255,255
41500,-4.4048,-5.8051,24.692,255,255,255
41750,-4.4149,-5.86,24.6848,255,255,255
42000,-4.4251,-5.9144,24.6786,255,255,255
42250,-4.4352,-5.9682,24.6734,255,255,255
42500,-4.4452,-6.0212,24.6696,255,255,255
42750,-4.4553,-6.0733,24.6671,255,255,255
43000,-4.4653,-6.1245,24.666,255,255,255
43250,-4.4755,-6.1747,24.6669,255,255,255
43500,-4.4863,-6.224,24.6701,255,255,255
43750,-4.4976,-6.2724,24.6757,255,255,255
44000,-4.5094,-6.3198,24.6833,255,255,255
44250,-4.5215,-6.3662,24.6929,255,255,255
44500,-4.534,-6.4114,24.7043,255,255,255
44750,-4.5468,-6.4556,24.7174,255,255,255
45000,-4.5598,-6.4986,24.7319,255,255,255
45250,-4.573,-6.5404,24.7477,255,255,255
45500,-4.5862,-6.5809,24.7646,255,255,255
45750,-4.5996,-6.6202,24.7826,255,255,255
46000,-4.6129,-6.6581,24.8014,255,255,255
46250,-4.6261,-6.6946,24.8208,255,255,255
46500,-4.6393,-6.7296,24.8408,255,255,255
46750,-4.6522,-6.7632,24.8611,255,255,255
47000,-4.6649,-6.7953,24.8816,255,255,255
47250,-4.6773,-6.8258,24.9021,255,255,255
47500,-4.6893,-6.8546,24.9224,255,255,255
47750,-4.7009,-6.8818,24.9425,255,255,255
48000,-4.7121,-6.9073,24.9622,255,255,255
48250,-4.7227,-6.9311,24.9812,255,255,255
48500,-4.7326,-6.9531,24.9994,255,255,255
48750,-4.742,-6.9732,25.0167,255,255,255
49000,-4.7506,-6.9914,25.033,255,255,255
49250,-4.7585,-7.0077,25.0479,255,255,255
49500,-4.7655,-7.022,25.0615,255,255,255
49750,-4.7717,-7.0343,25.0734,255,255,255
50000,-4.7768,-7.0446,25.0836,255,255,255
50250,-4.781,-7.0527,25.092,255,255,255
50500,-4.7842,-7.0587,25.0982,255,255,255
50750,-4.7862,-7.0624,25.1023,255,255,255
51000,-4.787,-7.064,25.104,255,255,255
51250,-4.787,-7.064,25.104,255,255,255
51500,-4.787,-7.064,25.104,255,255,255
51750,-4.787,-7.064,25.104,255,255,255
52000,-4.787,-7.064,25.104,255,255,255
52250,-4.787,-7.064,25.104,255,255,255
52500,-4.787,-7.064,25.104,255,255,255
52750,-4.787,-7.064,25.104,255,255,255
53000,-4.787,-7.064,25.104,255,255,255
53250,-4.787,-7.064,25.104,255,255,255
53500,-4.787,-7.064,25.104,255,255,255
53750,-4.787,-7.064,25.104,255,255,255
54000,-4.787,-7.064,25.104,255,255,255
54250,-4.7767,-7.0686,25.0384,255,255,255
54500,-4.7529,-7.0792,24.8284,255,255,255
54750,-4.7431,-7.0836,24.5468,255,255,255
55000,-4.7754,-7.0692,24.2697,255,255,255
55250,-4.8494,-7.0361,24.0335,255,255,255
55500,-4.9244,-7.0026,23.7985,255,255,255
55750,-5.0225,-6.9587,23.524,255,255,255
56000,-5.1765,-6.8895,23.1538,255,255,255
56250,-5.3701,-6.8024,22.7157,255,255,255
56500,-5.5858,-6.7055,22.2392,255,255,255
56750,-5.8061,-6.6065,21.7541,255,255,255
57000,-6.0136,-6.5135,21.2898,255,255,255
57250,-6.2041,-6.4283,20.854,255,255,255
57500,-6.3939,-6.3431,20.4189,255,255,255
57750,-6.5838,-6.258,19.9835,255,255,255
58000,-6.7735,-6.1727,19.5481,255,255,255
58250,-6.9631,-6.0873,19.1125,255,255,255
58500,-7.1527,-6.0019,18.6768,255,255,255
58750,-7.3422,-5.9164,18.241,255,255,255
59000,-7.5316,-5.8308,17.805,255,255,255
59250,-7.721,-5.7452,17.3689,255,255,255
59500,-7.9102,-5.6594,16.9326,255,255,255
59750,-8.0994,-5.5736,16.4963,255,255,255
60000,-8.2885,-5.4877,16.0597,255,255,255
60250,-8.4775,-5.4017,15.6231,255,255,255
60500,-8.6664,-5.3156,15.1863,255,255,255
60750,-8.8553,-5.2295,14.7494,255,255,255
61000,-9.0511,-5.1503,14.3241,255,255,255
61250,-9.2411,-5.0653,13.8891,255,255,255
61500,-9.4311,-4.9803,13.4541,255,255,255
61750,-9.6211,-4.8953,13.0191,255,255,255
62000,-9.8111,-4.8103,12.5841,255,255,255
62250,-10.003,-4.7227,12.1399,255,255,255
62500,-10.1891,-4.6394,11.7131,255,255,255
62750,-10.3416,-4.5711,11.3629,255,255,255
63000,-10.4408,-4.5267,11.0946,255,255,255
63250,-10.4953,-4.5022,10.8338,255,255,255
63500,-10.5168,-4.4925,10.5845,255,255,255
63750,-10.517,-4.4924,10.3525,255,255,255
64000,-10.5076,-4.4966,10.144,255,255,255
64250,-10.5002,-4.4999,9.9648,255,255,255
64500,-10.5,-4.5,9.8124,255,255,255
64750,-10.5,-4.5,9.6723,255,255,255
65000,-10.5,-4.5,9.5419,255,255,255
65250,-10.5,-4.5,9.4188,255,255,255
65500,-10.5,-4.5,9.3008,255,255,255
65750,-10.5,-4.5,9.1855,255,255,255
66000,-10.5,-4.5,9.0707,255,255,255
66250,-10.5,-4.5,8.9539,255,255,255
66500,-10.5,-4.5,8.8329,255,255,255
66750,-10.5,-4.5,8.708,255,255,255
67000,-10.5,-4.5,8.583,255,255,255
67250,-10.5,-4.5,8.458,255,255,255
67500,-10.5,-4.5,8.333,255,255,255
67750,-10.5,-4.5,8.208,255,255,255
68000,-10.5,-4.5,8.083,255,255,255
68250,-10.5,-4.5,7.958,255,255,255
68500,-10.5,-4.5,7.833,255,255,255
68750,-10.5,-4.5,7.708,255,255,255
69000,-10.5,-4.5,7.583,255,255,255
69250,-10.5,-4.5,7.458,255,255,255
69500,-10.5,-4.5,7.333,255,255,255
69750,-10.5,-4.5,7.208,255,255,255
70000,-10.5,-4.5,7.083,255,255,255
70250,-10.5,-4.5,6.958,255,255,255
70500,-10.5,-4.5,6.833,255,255,255
70750,-10.5,-4.5,6.708,255,255,255
71000,-10.5,-4.5,6.583,255,255,255
71250,-10.5,-4.5,6.458,255,255,255
71500,-10.5,-4.5,6.333,255,255,255
71750,-10.5,-4.5,6.208,255,255,255
72000,-10.5,-4.5,6.083,255,255,255
72250,-10.5,-4.5,5.958,255,255,255
72500,-10.5,-4.5,5.833,255,255,255
72750,-10.5,-4.5,5.708,255,255,255
73000,-10.5,-4.5,5.584,255,255,255
73250,-10.5,-4.5,5.459,255,255,255
73500,-10.5,-4.5,5.334,255,255,255
73750,-10.5,-4.5,5.209,255,255,255
74000,-10.5,-4.5,5.084,255,255,255
74250,-10.5,-4.5,4.959,255,255,255
74500,-10.5,-4.5,4.834,255,255,255
74750,-10.5,-4.5,4.709,255,255,255
75000,-10.5,-4.5,4.584,255,255,255
75250,-10.5,-4.5,4.459,255,255,255
75500,-10.5,-4.5,4.334,255,255,255
75750,-10.5,-4.5,4.209,255,255,255
76000,-10.5,-4.5,4.084,255,255,255
76250,-10.5,-4.5,3.959,255,255,255
76500,-10.5,-4.5,3.834,255,255,255
76750,-10.5,-4.5,3.709,255,255,255
77000,-10.5,-4.5,3.584,255,255,255
77250,-10.5,-4.5,3.459,255,255,255
77500,-10.5,-4.5,3.334,255,255,255
77750,-10.5,-4.5,3.209,255,255,255
78000,-10.5,-4.5,3.084,255,255,255
78250,-10.5,-4.5,2.959,255,255,255
78500,-10.5,-4.5,2.834,255,255,255
78750,-10.5,-4.5,2.709,255,255,255
79000,-10.5,-4.5,2.584,255,255,255
79250,-10.5,-4.5,2.459,255,255,255
79500,-10.5,-4.5,2.334,255,255,255
79750,-10.5,-4.5,2.209,255,255,255
80000,-10.5,-4.5,2.084,255,255,255
80250,-10.5,-4.5,1.959,255,255,255
80500,-10.5,-4.5,1.834,255,255,255
80750,-10.5,-4.5,1.709,255,255,255
81000,-10.5,-4.5,1.584,255,255,255
81250,-10.5,-4.5,1.459,255,255,255
81500,-10.5,-4.5,1.334,255,255,255
81750,-10.5,-4.5,1.209,255,255,255
82000,-10.5,-4.5,1.084,255,255,255
82250,-10.5,-4.5,0.959,255,255,255
82500,-10.5,-4.5,0.834,255,255,255
82750,-10.5,-4.5,0.709,255,255,255
83000,-10.5,-4.5,0.5748,255,255,255
83250,-10.5,-4.5,0.4242,255,255,255
83500,-10.5,-4.5,0.2742,255,255,255
83750,-10.5,-4.5,0.142,255,255,255
84000,-10.5,-4.5,0.0452,255,255,255
84250,-10.5,-4.5,0.001,255,255,255
84500,-10.5,-4.5,0,255,255,255
84750,-10.5,-4.5,0,255,255,255
85000,-10.5,-4.5,0,255,255,255
85250,-10.5,-4.5,0,255,255,255
85500,-10.5,-4.5,0,255,255,255
85750,-10.5,-4.5,0,255,255,255
86000,-10.5,-4.5,0,255,255,255
86250,-10.5,-4.5,0,255,255,255
86500,-10.5,-4.5,0,255,255,255
86750,-10.5,-4.5,0,255,255,255
87000,-10.5,-4.5,0,255,255,255
87250,-10.5,-4.5,0,255,255,255
87500,-10.5,-4.5,0,255,255,255
87750,-10.5,-4.5,0,255,255,255
88000,-10.5,-4.5,0,255,255,255
88250,-10.5,-4.5,0,255,255,255
88500,-10.5,-4.5,0,255,255,255
88750,-10.5,-4.5,0,255,255,255
89000,-10.5,-4.5,0,255,255,255
89250,-10.5,-4.5,0,255,255,255
89500,-10.5,-4.5,0,255,255,255
89750,-10.5,-4.5,0,255,255,255
90000,-10.5,-4.5,0,255,255,255
90250,-10.5,-4.5,0,255,255,255
90500,-10.5,-4.5,0,255,255,255
90750,-10.5,-4.5,0,255,255,255
91000,-10.5,-4.5,0,255,255,255
91250,-10.5,-4.5,0,255,255,255
91500,-10.5,-4.5,0,255,255,255
91750,-10.5,-4.5,0,255,255,255
92000,-10.5,-4.5,0,255,255,255
92250,-10.5,-4.5,0,255,255,255
92500,-10.5,-4.5,0,255,255,255
92750,-10.5,-4.5,0,255,255,255
93000,-10.5,-4.5,0,255,255,255
93250,-10.5,-4.5,0,255,255,255
93500,-10.5,-4.5,0,255,255,255
93750,-10.5,-4.5,0,255,255,255
94000,-10.5,-4.5,0,255,255,255
94250,-10.5,-4.5,0,255,255,255
94500,-10.5,-4.5,0,255,255,255
94750,-10.5,-4.5,0,255,255,255
95000,-10.5,-4.5,0,255,255,255
95250,-10.5,-4.5,0,255,255,255
95500,-10.5,-4.5,0,255,255,255
95750,-10.5,-4.5,0,255,255,255
96000,-10.5,-4.5,0,255,255,255
96250,-10.5,-4.5,0,255,255,255
96500,-10.5,-4.5,0,255,255,255
96750,-10.5,-4.5,0,255,255,255
97000,-10.5,-4.5,0,255,255,255
97250,-10.5,-4.5,0,255,255,255
97500,-10.5,-4.5,0,255,255,255
97750,-10.5,-4.5,0,255,255,255
98000,-10.5,-4.5,0,255,255,255
98250,-10.5,-4.5,0,255,255,255
98500,-10.5,-4.5,0,255,255,255
98750,-10.5,-4.5,0,255,255,255
99000,-10.5,-4.5,0,255,255,255
99250,-10.5,-4.5,0,255,255,255
99500,-10.5,-4.5,0,255,255,255
99750,-10.5,-4.5,0,255,255,255
100000,-10.5,-4.5,0,255,255,255
100250,-10.5,-4.5,0,255,255,255
100500,-10.5,-4.5,0,255,255,255
100750,-10.5,-4.5,0,255,255,255
101000,-10.5,-4.5,0,255,255,255
101250,-10.5,-4.5,0,255,255,255
101500,-10.5,-4.5,0,255,255,255
101750,-10.5,-4.5,0,255,255,255
102000,-10.5,-4.5,0,255,255,255
102250,-10.5,-4.5,0,255,255,255
102500,-10.5,-4.5,0,255,255,255
102750,-10.5,-4.5,0,255,255,255
103000,-10.5,-4.5,0,255,255,255
103250,-10.5,-4.5,0,255,255,255
103500,-10.5,-4.5,0,255,255,255
103750,-10.5,-4.5,0,255,255,255
104000,-10.5,-4.5,0,255,255,255
