Time [msec],x [m],y [m],z [m],Red,Green,Blue
0,-7.5,0,0,255,255,255
250,-7.5,0,0.0474,255,255,255
500,-7.5,0,0.2195,255,255,255
750,-7.5,0,0.5,255,255,255
1000,-7.5,0,0.8703,255,255,255
1250,-7.5,0,1.3121,255,255,255
1500,-7.5,0,1.8083,255,255,255
1750,-7.5,0,2.3437,255,255,255
2000,-7.5,0,2.9005,255,255,255
2250,-7.5,0,3.4611,255,255,255
2500,-7.5,0,4.0076,255,255,255
2750,-7.5,0,4.5223,255,255,255
3000,-7.5,0,4.9874,255,255,255
3250,-7.5,0,5.3853,255,255,255
3500,-7.5,0,5.6982,255,255,255
3750,-7.5,0,5.9084,255,255,255
4000,-7.5,0,5.998,255,255,255
4250,-7.5,0,6,255,255,255
4500,-7.5,0,6,255,255,255
4750,-7.5,0,6,255,255,255
5000,-7.5,0,6,255,255,255
5250,-7.5,0,6,255,255,255
5500,-7.5,0,6,255,255,255
5750,-7.5,0,6,255,255,255
6000,-7.5,0,6,255,255,255
6250,-7.5019,0.0014,6.0113,255,255,255
6500,-7.5092,0.0068,6.0542,255,255,255
6750,-7.5218,0.016,6.1279,255,255,255
7000,-7.5394,0.0289,6.2311,255,255,255
7250,-7.5619,0.0454,6.3628,255,255,255
7500,-7.5889,0.0653,6.5216,255,255,255
7750,-7.6204,0.0884,6.7064,255,255,255
8000,-7.6562,0.1147,6.9159,255,255,255
8250,-7.6959,0.1438,7.149,255,255,255
8500,-7.7395,0.1758,7.4044,255,255,255
8750,-7.7866,0.2104,7.681,255,255,255
9000,-7.8371,0.2476,7.9774,255,255,255
9250,-7.8909,0.287,8.2925,255,255,255
9500,-7.9476,0.3286,8.6252,255,255,255
9750,-8.007,0.3723,8.974,255,255,255
10000,-8.0691,0.4179,9.338,255,255,255
10250,-8.1335,0.4652,9.7158,255,255,255
10500,-8.2001,0.5141,10.1063,255,255,255
10750,-8.2686,0.5644,10.5081,255,255,255
11000,-8.3388,0.616,10.9203,255,255,255
11250,-8.4106,0.6687,11.3414,255,255,255
11500,-8.4837,0.7225,11.7703,255,255,255
11750,-8.5579,0.777,12.2058,255,255,255
12000,-8.6331,0.8322,12.6466,255,255,255
12250,-8.7089,0.8879,13.0917,255,255,255
12500,-8.7853,0.944,13.5396,255,255,255
12750,-8.8619,1.0004,13.9894,255,255,255
13000,-8.9387,1.0567,14.4396,255,255,255
13250,-9.0153,1.1131,14.8892,255,255,255
13500,-9.0916,1.1691,15.3369,255,255,255
13750,-9.1673,1.2248,15.7815,255,255,255
14000,-9.2424,1.28,16.2217,255,255,255
14250,-9.3164,1.3344,16.6565,255,255,255
14500,-9.3894,1.3881,17.0845,255,255,255
14750,-9.4609,1.4407,17.5046,255,255,255
15000,-9.5309,1.4922,17.9155,255,255,255
15250,-9.5991,1.5424,18.316,255,255,255
15500,-9.6654,1.5911,18.705,255,255,255
15750,-9.7295,1.6382,19.0811,255,255,255
16000,-9.7909,1.6835,19.4421,255,255,255
16250,-9.8493,1.7264,19.7847,255,255,255
16500,-9.9044,1.767,20.1082,255,255,255
16750,-9.9562,1.8051,20.412,255,255,255
17000,-10.0045,1.8406,20.6956,255,255,255
17250,-10.0492,1.8735,20.9581,255,255,255
17500,-10.0903,1.9037,21.1992,255,255,255
17750,-10.1276,1.9312,21.418,255,255,255
18000,-10.161,1.9557,21.6139,255,255,255
18250,-10.1904,1.9774,21.7865,255,255,255
18500,-10.2157,1.996,21.9349,255,255,255
18750,-10.2368,2.0115,22.0586,255,255,255
19000,-10.2536,2.0238,22.1569,255,255,255
19250,-10.266,2.0329,22.2293,255,255,255
19500,-10.2738,2.0386,22.2751,255,255,255
19750,-10.2769,2.041,22.2936,255,255,255
20000,-10.277,2.041,22.294,255,255,255
20250,-10.277,2.041,22.294,255,255,255
20500,-10.277,2.041,22.294,255,255,255
20750,-10.277,2.041,22.294,255,255,255
21000,-10.277,2.041,22.294,255,255,255
21250,-10.277,2.041,22.294,255,255,255
21500,-10.277,2.041,22.294,255,255,255
21750,-10.277,2.041,22.294,255,255,255
22000,-10.277,2.041,22.294,255,255,255
22250,-10.277,2.041,22.294,255,255,255
22500,-10.277,2.041,22.294,255,255,255
22750,-10.277,2.041,22.294,255,255,255
23000,-10.277,2.041,22.294,255,255,255
23250,-10.277,2.041,22.294,255,255,255
23500,-10.277,2.041,22.294,255,255,255
23750,-10.2899,2.0532,22.3048,255,255,255
24000,-10.3203,2.1156,22.354,255,255,255
24250,-10.3344,2.2561,22.4554,255,255,255
24500,-10.2976,2.5023,22.6225,255,255,255
24750,-10.2074,2.8576,22.8573,255,255,255
25000,-10.1283,3.2742,23.1373,255,255,255
25250,-10.0982,3.7245,23.4497,255,255,255
25500,-10.1539,4.1816,23.7821,255,255,255
25750,-10.3324,4.6185,24.122,255,255,255
26000,-10.6591,5.0141,24.4591,255,255,255
26250,-11.098,5.3691,24.7875,255,255,255
26500,-11.5931,5.6866,25.0993,255,255,255
26750,-12.0887,5.9696,25.3867,255,255,255
27000,-12.5366,6.2204,25.6426,255,255,255
27250,-12.9178,6.4337,25.8603,255,255,255
27500,-13.2163,6.6007,26.0306,255,255,255
27750,-13.4161,6.7124,26.1445,255,255,255
28000,-13.5011,6.76,26.1929,255,255,255
28250,-13.503,6.761,26.194,255,255,255
28500,-13.503,6.761,26.194,255,255,255
28750,-13.503,6.761,26.194,255,255,255
29000,-13.503,6.761,26.194,255,255,255
29250,-13.503,6.761,26.194,255,255,255
29500,-13.503,6.761,26.194,255,255,255
29750,-13.503,6.761,26.194,255,255,255
30000,-13.503,6.761,26.194,255,255,255
30250,-13.503,6.761,26.194,255,255,255
30500,-13.503,6.761,26.194,255,255,255
30750,-13.503,6.761,26.194,255,255,255
31000,-13.503,6.761,26.194,255,255,255
31250,-13.503,6.761,26.194,255,255,255
31500,-13.503,6.761,26.194,255,255,255
31750,-13.503,6.761,26.194,255,255,255
32000,-13.503,6.761,26.194,255,255,255
32250,-13.4764,6.7497,26.1759,255,255,255
32500,-13.3986,6.7066,26.1311,255,255,255
32750,-13.3126,6.6322,26.1031,255,255,255
33000,-13.2627,6.5275,26.1363,255,255,255
33250,-13.263,6.3939,26.2439,255,255,255
33500,-13.258,6.2331,26.3676,255,255,255
33750,-13.2117,6.0457,26.4705,255,255,255
34000,-13.0892,5.8323,26.5167,255,255,255
34250,-12.8555,5.5934,26.4701,255,255,255
34500,-12.4756,5.3297,26.2947,255,255,255
34750,-11.9276,5.0427,25.9665,255,255,255
35000,-11.2511,4.7411,25.5183,255,255,255
35250,-10.5014,4.437,24.9972,255,255,255
35500,-9.7342,4.1426,24.4504,255,255,255
35750,-9.0049,3.8698,23.9249,255,255,255
36000,-8.3596,3.6291,23.4596,255,255,255
36250,-7.8167,3.4265,23.0681,255,255,255
36500,-7.3958,3.2693,22.7644,255,255,255
36750,-7.1165,3.165,22.563,255,255,255
37000,-6.9986,3.121,22.4779,255,255,255
37250,-6.996,3.12,22.476,255,255,255
37500,-6.996,3.12,22.476,255,255,255
37750,-6.996,3.12,22.476,255,255,255
38000,-6.996,3.12,22.476,255,255,255
38250,-6.996,3.12,22.476,255,255,255
38500,-6.996,3.12,22.476,255,255,255
38750,-6.996,3.12,22.476,255,255,255
39000,-6.996,3.12,22.476,255,255,255
39250,-6.996,3.12,22.476,255,255,255
39500,-6.996,3.12,22.476,255,255,255
39750,-6.996,3.12,22.476,255,255,255
40000,-6.996,3.12,22.476,255,255,255
40250,-6.996,3.12,22.476,255,255,255
40500,-6.996,3.12,22.476,255,255,255
40750,-6.996,3.12,22.476,255,255,255
41000,-6.996,3.12,22.476,255,255,255
41250,-6.9988,3.121,22.4784,255,255,255
41500,-7.0114,3.104,22.4994,255,255,255
41750,-7.0371,3.0323,22.5602,255,255,255
42000,-7.0791,2.869,22.682,255,255,255
42250,-7.1385,2.607,22.8769,255,255,255
42500,-7.2125,2.2967,23.1287,255,255,255
42750,-7.3006,1.9597,23.4215,255,255,255
43000,-7.402,1.6168,23.7399,255,255,255
43250,-7.5162,1.2888,24.0684,255,255,255
43500,-7.6427,0.9965,24.3914,255,255,255
43750,-7.7807,0.7606,24.6934,255,255,255
44000,-7.9286,0.5866,24.9571,255,255,255
44250,-8.085,0.4508,25.1826,255,255,255
44500,-8.2515,0.345,25.3884,255,255,255
44750,-8.4297,0.2613,25.5929,255,255,255
45000,-8.6214,0.1918,25.8147,255,255,255
45250,-8.8226,0.1278,26.0572,255,255,255
45500,-9.0241,0.0638,26.3002,255,255,255
45750,-9.3324,-0.0065,26.5846,255,255,255
46000,-9.9008,-0.0919,26.9711,255,255,255
46250,-10.6554,-0.1883,27.4324,255,255,255
46500,-11.5177,-0.2914,27.9398,255,255,255
46750,-12.4088,-0.3966,28.4643,255,255,255
47000,-13.2504,-0.4996,28.9772,255,255,255
47250,-13.9636,-0.5959,29.4494,255,255,255
47500,-14.4698,-0.6811,29.8522,255,255,255
47750,-14.7353,-0.7531,30.1738,255,255,255
48000,-14.8479,-0.8164,30.446,255,255,255
48250,-14.8803,-0.8751,30.692,255,255,255
48500,-14.9038,-0.9331,30.9349,255,255,255
48750,-14.9573,-0.9925,31.1867,255,255,255
49000,-15.0114,-1.0517,31.4374,255,255,255
49250,-15.065,-1.1106,31.6859,255,255,255
49500,-15.1181,-1.1687,31.9314,255,255,255
49750,-15.1703,-1.2258,32.1732,255,255,255
50000,-15.2215,-1.2817,32.4106,255,255,255
50250,-15.2716,-1.3363,32.6429,255,255,255
50500,-15.3205,-1.3897,32.8695,255,255,255
50750,-15.3681,-1.4416,33.0899,255,255,255
51000,-15.4141,-1.4918,33.3033,255,255,255
51250,-15.4585,-1.5404,33.5092,255,255,255
51500,-15.5011,-1.587,33.7068,255,255,255
51750,-15.5418,-1.6315,33.8954,255,255,255
52000,-15.5804,-1.6738,34.0744,255,255,255
52250,-15.6168,-1.7137,34.2432,255,255,255
52500,-15.6508,-1.751,34.4011,255,255,255
52750,-15.6823,-1.7856,34.5474,255,255,255
53000,-15.7112,-1.8173,34.6814,255,255,255
53250,-15.7373,-1.846,34.8025,255,255,255
53500,-15.7604,-1.8714,34.91,255,255,255
53750,-15.7805,-1.8935,35.0033,255,255,255
54000,-15.7974,-1.9121,35.0817,255,255,255
54250,-15.8109,-1.927,35.1445,255,255,255
54500,-15.821,-1.938,35.191,255,255,255
54750,-15.8273,-1.9451,35.2207,255,255,255
55000,-15.8299,-1.9479,35.2327,255,255,255
55250,-15.83,-1.948,35.233,255,255,255
55500,-15.83,-1.948,35.233,255,255,255
55750,-15.83,-1.948,35.233,255,255,255
56000,-15.83,-1.948,35.233,255,255,255
56250,-15.83,-1.948,35.233,255,255,255
56500,-15.83,-1.948,35.233,255,255,255
56750,-15.83,-1.948,35.233,255,255,255
57000,-15.83,-1.948,35.233,255,255,255
57250,-15.83,-1.948,35.233,255,255,255
57500,-15.83,-1.948,35.233,255,255,255
57750,-15.83,-1.948,35.233,255,255,255
58000,-15.83,-1.948,35.233,255,255,255
58250,-15.83,-1.948,35.233,255,255,255
58500,-15.83,-1.948,35.233,255,255,255
58750,-15.83,-1.948,35.233,255,255,255
59000,-15.83,-1.948,35.233,255,255,255
59250,-15.8352,-1.9725,35.2317,255,255,255
59500,-15.8548,-2.0653,35.2269,255,255,255
59750,-15.8884,-2.2244,35.2186,255,255,255
60000,-15.9356,-2.4468,35.207,255,255,255
60250,-15.9958,-2.7294,35.1922,255,255,255
60500,-16.0683,-3.0694,35.1744,255,255,255
60750,-16.1527,-3.4636,35.1537,255,255,255
61000,-16.2469,-3.9032,35.1307,255,255,255
61250,-16.3467,-4.3697,35.1064,255,255,255
61500,-16.4499,-4.8523,35.0812,255,255,255
61750,-16.5542,-5.3405,35.0558,255,255,255
62000,-16.6574,-5.8239,35.0307,255,255,255
62250,-16.7573,-6.2919,35.0064,255,255,255
62500,-16.8515,-6.7338,34.9835,255,255,255
62750,-16.938,-7.1393,34.9625,255,255,255
63000,-17.0144,-7.4978,34.944,255,255,255
63250,-17.0785,-7.7986,34.9284,255,255,255
63500,-17.128,-8.0314,34.9164,255,255,255
63750,-17.1609,-8.1856,34.9084,255,255,255
64000,-17.1747,-8.2506,34.9051,255,255,255
64250,-17.175,-8.252,34.905,255,255,255
64500,-17.175,-8.252,34.905,255,255,255
64750,-17.175,-8.252,34.905,255,255,255
65000,-17.175,-8.252,34.905,255,255,255
65250,-17.175,-8.252,34.905,255,255,255
65500,-17.175,-8.252,34.905,255,255,255
65750,-17.175,-8.252,34.905,255,255,255
66000,-17.175,-8.252,34.905,255,255,255
66250,-17.175,-8.252,34.905,255,255,255
66500,-17.175,-8.252,34.905,255,255,255
66750,-17.175,-8.252,34.905,255,255,255
67000,-17.175,-8.252,34.905,255,255,255
67250,-17.175,-8.252,34.905,255,255,255
67500,-17.175,-8.252,34.905,255,255,255
67750,-17.175,-8.252,34.905,255,255,255
68000,-17.175,-8.252,34.905,255,255,255
68250,-17.175,-8.252,34.905,255,255,255
68500,-17.175,-8.252,34.905,255,255,255
68750,-17.175,-8.252,34.905,255,255,255
69000,-17.175,-8.252,34.905,255,255,255
69250,-17.175,-8.252,34.905,255,255,255
69500,-17.175,-8.252,34.905,255,255,255
69750,-17.175,-8.252,34.905,255,255,255
70000,-17.175,-8.252,34.905,255,255,255
70250,-17.175,-8.252,34.905,255,255,255
70500,-17.175,-8.252,34.905,255,255,255
70750,-17.175,-8.252,34.905,255,255,255
71000,-17.175,-8.252,34.905,255,255,255
71250,-17.175,-8.252,34.905,255,255,255
71500,-17.175,-8.252,34.905,255,255,255
71750,-17.175,-8.252,34.905,255,255,255
72000,-17.175,-8.252,34.905,255,255,255
72250,-17.175,-8.252,34.905,255,255,255
72500,-17.175,-8.252,34.905,255,255,255
72750,-17.175,-8.252,34.905,255,255,255
73000,-17.175,-8.252,34.905,255,255,255
73250,-17.175,-8.252,34.905,255,255,255
73500,-17.175,-8.252,34.905,255,255,255
73750,-17.175,-8.252,34.905,255,255,255
74000,-17.175,-8.252,34.905,255,255,255
74250,-17.175,-8.252,34.905,255,255,255
74500,-17.175,-8.252,34.905,255,255,255
74750,-17.175,-8.252,34.905,255,255,255
75000,-17.175,-8.252,34.905,255,255,255
75250,-17.175,-8.252,34.905,255,255,255
75500,-17.175,-8.252,34.905,255,255,255
75750,-17.175,-8.252,34.905,255,255,255
76000,-17.175,-8.252,34.905,255,255,255
76250,-17.175,-8.252,34.905,255,255,255
76500,-17.1713,-8.2508,34.8954,255,255,255
76750,-17.1572,-8.246,34.8591,255,255,255
77000,-17.1328,-8.2379,34.7964,255,255,255
77250,-17.0984,-8.2264,34.7079,255,255,255
77500,-17.0544,-8.2116,34.5946,255,255,255
77750,-17.001,-8.1937,34.4572,255,255,255
78000,-16.9385,-8.1728,34.2963,255,255,255
78250,-16.8673,-8.1489,34.1128,255,255,255
78500,-16.7875,-8.1222,33.9075,255,255,255
78750,-16.6995,-8.0927,33.6811,255,255,255
79000,-16.6037,-8.0606,33.4343,255,255,255
79250,-16.5002,-8.0259,33.1679,255,255,255
79500,-16.3894,-7.9888,32.8827,255,255,255
79750,-16.2716,-7.9493,32.5795,255,255,255
80000,-16.147,-7.9075,32.2589,255,255,255
80250,-16.0161,-7.8636,31.9218,255,255,255
80500,-15.879,-7.8177,31.5689,255,255,255
80750,-15.736,-7.7697,31.2009,255,255,255
81000,-15.5875,-7.7199,30.8187,255,255,255
81250,-15.4338,-7.6684,30.423,255,255,255
81500,-15.2751,-7.6152,30.0145,255,255,255
81750,-15.1118,-7.5604,29.594,255,255,255
82000,-14.9441,-7.5041,29.1623,255,255,255
82250,-14.7723,-7.4464,28.7201,255,255,255
82500,-14.5967,-7.3875,28.2682,255,255,255
82750,-14.4177,-7.3274,27.8073,255,255,255
83000,-14.2355,-7.2662,27.3383,255,255,255
83250,-14.0504,-7.2041,26.8618,255,255,255
83500,-13.8626,-7.1411,26.3786,255,255,255
83750,-13.6726,-7.0772,25.8895,255,255,255
84000,-13.4806,-7.0127,25.3952,255,255,255
84250,-13.2869,-6.9476,24.8966,255,255,255
84500,-13.0918,-6.8821,24.3943,255,255,255
84750,-12.8955,-6.8161,23.8891,255,255,255
85000,-12.6985,-6.7498,23.3817,255,255,255
85250,-12.5008,-6.6834,22.8731,255,255,255
85500,-12.303,-6.6168,22.3638,255,255,255
85750,-12.1052,-6.5503,21.8546,255,255,255
86000,-11.9078,-6.4838,21.3464,255,255,255
86250,-11.711,-6.4176,20.8399,255,255,255
86500,-11.5152,-6.3517,20.3357,255,255,255
86750,-11.3206,-6.2861,19.8348,255,255,255
87000,-11.1275,-6.221,19.3378,255,255,255
87250,-10.9363,-6.1566,18.8456,255,255,255
87500,-10.7472,-6.0928,18.3588,255,255,255
87750,-10.5605,-6.0298,17.8782,255,255,255
88000,-10.3765,-5.9677,17.4046,255,255,255
88250,-10.1956,-5.9066,16.9387,255,255,255
88500,-10.0179,-5.8466,16.4814,255,255,255
88750,-9.8439,-5.7878,16.0333,255,255,255
89000,-9.6739,-5.7303,15.5957,255,255,255
89250,-9.5085,-5.6744,15.1701,255,255,255
89500,-9.3481,-5.6203,14.757,255,255,255
89750,-9.1927,-5.5679,14.3571,255,255,255
90000,-9.0427,-5.5173,13.9708,255,255,255
90250,-8.8982,-5.4687,13.5989,255,255,255
90500,-8.7595,-5.422,13.2418,255,255,255
90750,-8.6267,-5.3774,12.9001,255,255,255
91000,-8.5002,-5.3349,12.5745,255,255,255
91250,-8.3801,-5.2945,12.2654,255,255,255
91500,-8.2667,-5.2565,11.9735,255,255,255
91750,-8.1602,-5.2208,11.6993,255,255,255
92000,-8.0608,-5.1875,11.4434,255,255,255
92250,-7.9687,-5.1566,11.2064,255,255,255
92500,-7.8842,-5.1283,10.9888,255,255,255
92750,-7.8074,-5.1026,10.7912,255,255,255
93000,-7.7387,-5.0797,10.6143,255,255,255
93250,-7.6781,-5.0594,10.4585,255,255,255
93500,-7.626,-5.042,10.3244,255,255,255
93750,-7.5826,-5.0276,10.2127,255,255,255
94000,-7.5481,-5.016,10.1238,255,255,255
94250,-7.5227,-5.0076,10.0584,255,255,255
94500,-7.5066,-5.0022,10.0171,255,255,255
94750,-7.5001,-5,10.0004,255,255,255
95000,-7.5,-5,10,255,255,255
95250,-7.5,-5,10,255,255,255
95500,-7.5,-5,10,255,255,255
95750,-7.5,-5,10,255,255,255
