Time [msec],x [m],y [m],z [m],Red,Green,Blue
0,-13.5,-1.5,0,255,255,255
250,-13.4901,-1.4993,0.0249,255,255,255
500,-13.4527,-1.4968,0.1184,255,255,255
750,-13.3893,-1.4926,0.2773,255,255,255
1000,-13.3015,-1.4867,0.4972,255,255,255
1250,-13.191,-1.4794,0.7741,255,255,255
1500,-13.0595,-1.4706,1.1035,255,255,255
1750,-12.9087,-1.4605,1.4813,255,255,255
2000,-12.7402,-1.4493,1.9033,255,255,255
2250,-12.5559,-1.4371,2.3651,255,255,255
2500,-12.3574,-1.4239,2.8625,255,255,255
2750,-12.1463,-1.4099,3.3913,255,255,255
3000,-11.9244,-1.3952,3.9472,255,255,255
3250,-11.6935,-1.38,4.5259,255,255,255
3500,-11.455,-1.3643,5.1233,255,255,255
3750,-11.2109,-1.3482,5.7351,255,255,255
4000,-10.9628,-1.3319,6.357,255,255,255
4250,-10.7123,-1.3155,6.9847,255,255,255
4500,-10.4612,-1.2991,7.6141,255,255,255
4750,-10.2111,-1.2828,8.2408,255,255,255
5000,-9.9639,-1.2668,8.8607,255,255,255
5250,-9.7211,-1.2511,9.4694,255,255,255
5500,-9.4844,-1.2358,10.0627,255,255,255
5750,-9.2556,-1.2212,10.6364,255,255,255
6000,-9.0364,-1.2073,11.1863,255,255,255
6250,-8.8284,-1.1941,11.708,255,255,255
6500,-8.6334,-1.1819,12.1973,255,255,255
6750,-8.4488,-1.1706,12.6605,255,255,255
7000,-8.2679,-1.1599,13.1153,255,255,255
7250,-8.0904,-1.1498,13.562,255,255,255
7500,-7.9164,-1.1404,14.0003,255,255,255
7750,-7.7461,-1.1316,14.4301,255,255,255
8000,-7.5794,-1.1234,14.8514,255,255,255
8250,-7.4164,-1.1159,15.2639,255,255,255
8500,-7.2572,-1.1091,15.6676,255,255,255
8750,-7.1018,-1.103,16.0623,255,255,255
9000,-6.9503,-1.0976,16.4478,255,255,255
9250,-6.8027,-1.0929,16.8241,255,255,255
9500,-6.6592,-1.089,17.1909,255,255,255
9750,-6.5197,-1.0858,17.5482,255,255,255
10000,-6.3843,-1.0834,17.8958,255,255,255
10250,-6.2532,-1.0818,18.2336,255,255,255
10500,-6.1263,-1.081,18.5614,255,255,255
10750,-6.0036,-1.0809,18.8792,255,255,255
11000,-5.8854,-1.0817,19.1867,255,255,255
11250,-5.7716,-1.0834,19.4838,255,255,255
11500,-5.6622,-1.0859,19.7704,255,255,255
11750,-5.5574,-1.0893,20.0464,255,255,255
12000,-5.4572,-1.0935,20.3115,255,255,255
12250,-5.3617,-1.0986,20.5658,255,255,255
12500,-5.2709,-1.1047,20.809,255,255,255
12750,-5.1848,-1.1117,21.0411,255,255,255
13000,-5.1036,-1.1196,21.2618,255,255,255
13250,-5.0273,-1.1284,21.471,255,255,255
13500,-4.9559,-1.1382,21.6688,255,255,255
13750,-4.8891,-1.1489,21.8556,255,255,255
14000,-4.8269,-1.1604,22.0318,255,255,255
14250,-4.769,-1.1727,22.1976,255,255,255
14500,-4.7154,-1.1858,22.3534,255,255,255
14750,-4.6659,-1.1997,22.4995,255,255,255
15000,-4.6203,-1.2144,22.6363,255,255,255
15250,-4.5787,-1.2297,22.7639,255,255,255
15500,-4.5407,-1.2458,22.8829,255,255,255
15750,-4.5063,-1.2625,22.9934,255,255,255
16000,-4.4754,-1.2798,23.0958,255,255,255
16250,-4.4477,-1.2978,23.1904,255,255,255
16500,-4.4232,-1.3164,23.2776,255,255,255
16750,-4.4018,-1.3355,23.3576,255,255,255
17000,-4.3833,-1.3551,23.4308,255,255,255
17250,-4.3675,-1.3753,23.4975,255,255,255
17500,-4.3544,-1.396,23.5581,255,255,255
17750,-4.3438,-1.4171,23.6127,255,255,255
18000,-4.3356,-1.4386,23.6618,255,255,255
18250,-4.3295,-1.4606,23.7057,255,255,255
18500,-4.3256,-1.483,23.7447,255,255,255
18750,-4.3237,-1.5057,23.7791,255,255,255
19000,-4.3235,-1.5287,23.8092,255,255,255
19250,-4.3251,-1.5521,23.8354,255,255,255
19500,-4.3282,-1.5757,23.858,255,255,255
19750,-4.3328,-1.5996,23.8772,255,255,255
20000,-4.3386,-1.6237,23.8935,255,255,255
20250,-4.3456,-1.648,23.9071,255,255,255
20500,-4.3536,-1.6725,23.9183,255,255,255
20750,-4.3625,-1.6972,23.9276,255,255,255
21000,-4.3721,-1.722,23.9351,255,255,255
21250,-4.3824,-1.7468,23.9412,255,255,255
21500,-4.3932,-1.7718,23.9462,255,255,255
21750,-4.4041,-1.7967,23.9508,255,255,255
22000,-4.4151,-1.8212,23.9553,255,255,255
22250,-4.4261,-1.8453,23.96,255,255,255
22500,-4.437,-1.8689,23.9646,255,255,255
22750,-4.4479,-1.892,23.9693,255,255,255
23000,-4.4588,-1.9147,23.9741,255,255,255
23250,-4.4696,-1.9367,23.9789,255,255,255
23500,-4.4805,-1.9582,23.9836,255,255,255
23750,-4.4913,-1.979,23.9885,255,255,255
24000,-4.5021,-1.9992,23.9933,255,255,255
24250,-4.5129,-2.0187,23.9981,255,255,255
24500,-4.5237,-2.0375,24.0029,255,255,255
24750,-4.5344,-2.0554,24.0078,255,255,255
25000,-4.5452,-2.0726,24.0126,255,255,255
25250,-4.5559,-2.089,24.0174,255,255,255
25500,-4.5666,-2.1044,24.0222,255,255,255
25750,-4.5772,-2.119,24.027,255,255,255
26000,-4.5879,-2.1326,24.0317,255,255,255
26250,-4.5986,-2.1452,24.0364,255,255,255
26500,-4.6092,-2.1569,24.0411,255,255,255
26750,-4.6198,-2.1674,24.0457,255,255,255
27000,-4.6304,-2.1769,24.0502,255,255,255
27250,-4.641,-2.1853,24.0547,255,255,255
27500,-4.6516,-2.1925,24.0592,255,255,255
27750,-4.6621,-2.1985,24.0636,255,255,255
28000,-4.6727,-2.2033,24.0679,255,255,255
28250,-4.6832,-2.2068,24.0721,255,255,255
28500,-4.6937,-2.2091,24.0763,255,255,255
28750,-4.7042,-2.21,24.0803,255,255,255
29000,-4.7147,-2.2101,24.0843,255,255,255
29250,-4.7253,-2.2106,24.0881,255,255,255
29500,-4.7359,-2.2116,24.0918,255,255,255
29750,-4.7465,-2.2132,24.0954,255,255,255
30000,-4.7571,-2.2153,24.0989,255,255,255
30250,-4.7678,-2.218,24.1022,255,255,255
30500,-4.7785,-2.2215,24.1054,255,255,255
30750,-4.7892,-2.2258,24.1085,255,255,255
31000,-4.7999,-2.2309,24.1115,255,255,255
31250,-4.8107,-2.237,24.1143,255,255,255
31500,-4.8214,-2.244,24.117,255,255,255
31750,-4.8322,-2.2521,24.1196,255,255,255
32000,-4.8429,-2.2613,24.122,255,255,255
32250,-4.8537,-2.2716,24.1244,255,255,255
32500,-4.8645,-2.2832,24.1266,255,255,255
32750,-4.8752,-2.2961,24.1287,255,255,255
33000,-4.886,-2.3104,24.1306,255,255,255
33250,-4.8967,-2.3261,24.1325,255,255,255
33500,-4.9075,-2.3433,24.1342,255,255,255
33750,-4.9182,-2.3621,24.1357,255,255,255
34000,-4.9289,-2.3825,24.1372,255,255,255
34250,-4.9396,-2.4046,24.1385,255,255,255
34500,-4.9503,-2.4284,24.1397,255,255,255
34750,-4.9609,-2.454,24.1408,255,255,255
35000,-4.9716,-2.4816,24.1418,255,255,255
35250,-4.9822,-2.5111,24.1426,255,255,255
35500,-4.9927,-2.5426,24.1433,255,255,255
35750,-5.0032,-2.5762,24.1439,255,255,255
36000,-5.0137,-2.6118,24.1444,255,255,255
36250,-5.0243,-2.6494,24.1447,255,255,255
36500,-5.0348,-2.6888,24.145,255,255,255
36750,-5.0453,-2.7298,24.1452,255,255,255
37000,-5.0559,-2.7725,24.1454,255,255,255
37250,-5.0665,-2.8166,24.1456,255,255,255
37500,-5.077,-2.862,24.1458,255,255,255
37750,-5.0876,-2.9087,24.146,255,255,255
38000,-5.0982,-2.9565,24.1462,255,255,255
38250,-5.1089,-3.0052,24.1465,255,255,255
38500,-5.1195,-3.0549,24.1469,255,255,255
38750,-5.1302,-3.1053,24.1475,255,255,255
39000,-5.1408,-3.1564,24.1481,255,255,255
39250,-5.1515,-3.208,24.1489,255,255,255
39500,-5.1622,-3.2601,24.1499,255,255,255
39750,-5.173,-3.3124,24.1511,255,255,255
40000,-5.1837,-3.3649,24.1525,255,255,255
40250,-5.1945,-3.4176,24.1541,255,255,255
40500,-5.2053,-3.4701,24.156,255,255,255
40750,-5.2161,-3.5226,24.1582,255,255,255
41000,-5.2269,-3.5747,24.1607,255,255,255
41250,-5.2377,-3.6265,24.1635,255,255,255
41500,-5.2486,-3.6777,24.1666,255,255,255
41750,-5.2594,-3.7284,24.1702,255,255,255
42000,-5.2703,-3.7783,24.1741,255,255,255
42250,-5.2813,-3.8274,24.1784,255,255,255
42500,-5.2922,-3.8755,24.1831,255,255,255
42750,-5.3032,-3.9226,24.1883,255,255,255
43000,-5.3142,-3.9684,24.194,255,255,255
43250,-5.3254,-4.013,24.2004,255,255,255
43500,-5.3371,-4.0564,24.2078,255,255,255
43750,-5.3493,-4.0985,24.2162,255,255,255
44000,-5.362,-4.1394,24.2254,255,255,255
44250,-5.375,-4.1791,24.2355,255,255,255
44500,-5.3884,-4.2174,24.2463,255,255,255
44750,-5.402,-4.2545,24.2578,255,255,255
45000,-5.4158,-4.2903,24.2698,255,255,255
45250,-5.4298,-4.3247,24.2823,255,255,255
45500,-5.4438,-4.3579,24.2951,255,255,255
45750,-5.4578,-4.3897,24.3083,255,255,255
46000,-5.4718,-4.4202,24.3218,255,255,255
46250,-5.4858,-4.4493,24.3354,255,255,255
46500,-5.4995,-4.4771,24.349,255,255,255
46750,-5.513,-4.5035,24.3627,255,255,255
47000,-5.5263,-4.5284,24.3762,255,255,255
47250,-5.5392,-4.552,24.3896,255,255,255
47500,-5.5518,-4.5742,24.4027,255,255,255
47750,-5.5638,-4.5949,24.4155,255,255,255
48000,-5.5754,-4.6142,24.4279,255,255,255
48250,-5.5864,-4.6321,24.4398,255,255,255
48500,-5.5968,-4.6484,24.4511,255,255,255
48750,-5.6065,-4.6633,24.4617,255,255,255
49000,-5.6154,-4.6767,24.4716,255,255,255
49250,-5.6236,-4.6886,24.4806,255,255,255
49500,-5.6308,-4.699,24.4888,255,255,255
49750,-5.6372,-4.7079,24.4959,255,255,255
50000,-5.6425,-4.7153,24.502,255,255,255
50250,-5.6469,-4.721,24.5069,255,255,255
50500,-5.6501,-4.7253,24.5106,255,255,255
50750,-5.6521,-4.7279,24.513,255,255,255
51000,-5.653,-4.729,24.514,255,255,255
51250,-5.653,-4.729,24.514,255,255,255
51500,-5.653,-4.729,24.514,255,255,255
51750,-5.653,-4.729,24.514,255,255,255
52000,-5.653,-4.729,24.514,255,255,255
52250,-5.653,-4.729,24.514,255,255,255
52500,-5.653,-4.729,24.514,255,255,255
52750,-5.653,-4.729,24.514,255,255,255
53000,-5.653,-4.729,24.514,255,255,255
53250,-5.653,-4.729,24.514,255,255,255
53500,-5.653,-4.729,24.514,255,255,255
53750,-5.653,-4.729,24.514,255,255,255
54000,-5.653,-4.729,24.514,255,255,255
54250,-5.6477,-4.7312,24.4504,255,255,255
54500,-5.6353,-4.7363,24.245,255,255,255
54750,-5.6302,-4.7384,23.9653,255,255,255
55000,-5.647,-4.7315,23.682,255,255,255
55250,-5.7067,-4.7068,23.4482,255,255,255
55500,-5.8308,-4.6556,23.2198,255,255,255
55750,-6.0251,-4.5754,22.9191,255,255,255
56000,-6.2878,-4.4673,22.5009,255,255,255
56250,-6.5946,-4.3412,22.012,255,255,255
56500,-6.9213,-4.207,21.4914,255,255,255
56750,-7.2439,-4.0744,20.9771,255,255,255
57000,-7.5518,-3.9478,20.4859,255,255,255
57250,-7.8593,-3.8213,19.9954,255,255,255
57500,-8.1668,-3.6948,19.5049,255,255,255
57750,-8.4743,-3.5683,19.0144,255,255,255
58000,-8.7818,-3.4418,18.5239,255,255,255
58250,-9.0893,-3.3153,18.0334,255,255,255
58500,-9.3968,-3.1888,17.5429,255,255,255
58750,-9.7043,-3.0623,17.0524,255,255,255
59000,-10.0118,-2.9358,16.5619,255,255,255
59250,-10.3193,-2.8093,16.0714,255,255,255
59500,-10.6268,-2.6828,15.5809,255,255,255
59750,-10.9343,-2.5563,15.0904,255,255,255
60000,-11.2418,-2.4288,14.6009,255,255,255
60250,-11.5493,-2.3023,14.1104,255,255,255
60500,-11.8568,-2.1758,13.6199,255,255,255
60750,-12.1643,-2.0493,13.1294,255,255,255
61000,-12.4718,-1.9228,12.6389,255,255,255
61250,-12.7798,-1.7963,12.1479,255,255,255
61500,-13.0873,-1.6693,11.6574,255,255,255
61750,-13.2592,-1.5989,11.3836,255,255,255
62000,-13.4037,-1.5399,11.1536,255,255,255
62250,-13.5169,-1.4937,10.9132,255,255,255
62500,-13.5562,-1.4775,10.6542,255,255,255
62750,-13.5481,-1.4806,10.3963,255,255,255
63000,-13.5203,-1.4918,10.1599,255,255,255
63250,-13.5005,-1.4998,9.9652,255,255,255
63500,-13.5,-1.5,9.812,255,255,255
63750,-13.5,-1.5,9.6705,255,255,255
64000,-13.5,-1.5,9.5382,255,255,255
64250,-13.5,-1.5,9.4131,255,255,255
64500,-13.5,-1.5,9.2933,255,255,255
64750,-13.5,-1.5,9.1771,255,255,255
65000,-13.5,-1.5,9.0624,255,255,255
65250,-13.5,-1.5,8.9474,255,255,255
65500,-13.5,-1.5,8.8302,255,255,255
65750,-13.5,-1.5,8.7089,255,255,255
66000,-13.5,-1.5,8.584,255,255,255
66250,-13.5,-1.5,8.459,255,255,255
66500,-13.5,-1.5,8.334,255,255,255
66750,-13.5,-1.5,8.209,255,255,255
67000,-13.5,-1.5,8.084,255,255,255
67250,-13.5,-1.5,7.959,255,255,255
67500,-13.5,-1.5,7.834,255,255,255
67750,-13.5,-1.5,7.709,255,255,255
68000,-13.5,-1.5,7.584,255,255,255
68250,-13.5,-1.5,7.459,255,255,255
68500,-13.5,-1.5,7.334,255,255,255
68750,-13.5,-1.5,7.209,255,255,255
69000,-13.5,-1.5,7.084,255,255,255
69250,-13.5,-1.5,6.959,255,255,255
69500,-13.5,-1.5,6.834,255,255,255
69750,-13.5,-1.5,6.709,255,255,255
70000,-13.5,-1.5,6.584,255,255,255
70250,-13.5,-1.5,6.459,255,255,255
70500,-13.5,-1.5,6.334,255,255,255
70750,-13.5,-1.5,6.209,255,255,255
71000,-13.5,-1.5,6.084,255,255,255
71250,-13.5,-1.5,5.959,255,255,255
71500,-13.5,-1.5,5.834,255,255,255
71750,-13.5,-1.5,5.709,255,255,255
72000,-13.5,-1.5,5.584,255,255,255
72250,-13.5,-1.5,5.459,255,255,255
72500,-13.5,-1.5,5.334,255,255,255
72750,-13.5,-1.5,5.209,255,255,255
73000,-13.5,-1.5,5.084,255,255,255
73250,-13.5,-1.5,4.959,255,255,255
73500,-13.5,-1.5,4.834,255,255,255
73750,-13.5,-1.5,4.709,255,255,255
74000,-13.5,-1.5,4.584,255,255,255
74250,-13.5,-1.5,4.459,255,255,255
74500,-13.5,-1.5,4.334,255,255,255
74750,-13.5,-1.5,4.209,255,255,255
75000,-13.5,-1.5,4.084,255,255,255
75250,-13.5,-1.5,3.959,255,255,255
75500,-13.5,-1.5,3.834,255,255,255
75750,-13.5,-1.5,3.709,255,255,255
76000,-13.5,-1.5,3.584,255,255,255
76250,-13.5,-1.5,3.459,255,255,255
76500,-13.5,-1.5,3.334,255,255,255
76750,-13.5,-1.5,3.209,255,255,255
77000,-13.5,-1.5,3.084,255,255,255
77250,-13.5,-1.5,2.959,255,255,255
77500,-13.5,-1.5,2.834,255,255,255
77750,-13.5,-1.5,2.709,255,255,255
78000,-13.5,-1.5,2.584,255,255,255
78250,-13.5,-1.5,2.459,255,255,255
78500,-13.5,-1.5,2.334,255,255,255
78750,-13.5,-1.5,2.209,255,255,255
79000,-13.5,-1.5,2.084,255,255,255
79250,-13.5,-1.5,1.959,255,255,255
79500,-13.5,-1.5,1.834,255,255,255
79750,-13.5,-1.5,1.708,255,255,255
80000,-13.5,-1.5,1.583,255,255,255
80250,-13.5,-1.5,1.458,255,255,255
80500,-13.5,-1.5,1.333,255,255,255
80750,-13.5,-1.5,1.208,255,255,255
81000,-13.5,-1.5,1.083,255,255,255
81250,-13.5,-1.5,0.958,255,255,255
81500,-13.5,-1.5,0.833,255,255,255
81750,-13.5,-1.5,0.708,255,255,255
82000,-13.5,-1.5,0.583,255,255,255
82250,-13.5,-1.5,0.4482,255,255,255
82500,-13.5,-1.5,0.299,255,255,255
82750,-13.5,-1.5,0.1588,255,255,255
83000,-13.5,-1.5,0.0515,255,255,255
83250,-13.5,-1.5,0.0012,255,255,255
83500,-13.5,-1.5,0,255,255,255
83750,-13.5,-1.5,0,255,255,255
84000,-13.5,-1.5,0,255,255,255
84250,-13.5,-1.5,0,255,255,255
84500,-13.5,-1.5,0,255,255,255
84750,-13.5,-1.5,0,255,255,255
85000,-13.5,-1.5,0,255,255,255
85250,-13.5,-1.5,0,255,255,255
85500,-13.5,-1.5,0,255,255,255
85750,-13.5,-1.5,0,255,255,255
86000,-13.5,-1.5,0,255,255,255
86250,-13.5,-1.5,0,255,255,255
86500,-13.5,-1.5,0,255,255,255
86750,-13.5,-1.5,0,255,255,255
87000,-13.5,-1.5,0,255,255,255
87250,-13.5,-1.5,0,255,255,255
87500,-13.5,-1.5,0,255,255,255
87750,-13.5,-1.5,0,255,255,255
88000,-13.5,-1.5,0,255,255,255
88250,-13.5,-1.5,0,255,255,255
88500,-13.5,-1.5,0,255,255,255
88750,-13.5,-1.5,0,255,255,255
89000,-13.5,-1.5,0,255,255,255
89250,-13.5,-1.5,0,255,255,255
89500,-13.5,-1.5,0,255,255,255
89750,-13.5,-1.5,0,255,255,255
90000,-13.5,-1.5,0,255,255,255
90250,-13.5,-1.5,0,255,255,255
90500,-13.5,-1.5,0,255,255,255
90750,-13.5,-1.5,0,255,255,255
91000,-13.5,-1.5,0,255,255,255
91250,-13.5,-1.5,0,255,255,255
91500,-13.5,-1.5,0,255,255,255
91750,-13.5,-1.5,0,255,255,255
92000,-13.5,-1.5,0,255,255,255
92250,-13.5,-1.5,0,255,255,255
92500,-13.5,-1.5,0,255,255,255
92750,-13.5,-1.5,0,255,255,255
93000,-13.5,-1.5,0,255,255,255
93250,-13.5,-1.5,0,255,255,255
93500,-13.5,-1.5,0,255,255,255
93750,-13.5,-1.5,0,255,255,255
94000,-13.5,-1.5,0,255,255,255
94250,-13.5,-1.5,0,255,255,255
94500,-13.5,-1.5,0,255,255,255
94750,-13.5,-1.5,0,255,255,255
95000,-13.5,-1.5,0,255,255,255
95250,-13.5,-1.5,0,255,255,255
95500,-13.5,-1.5,0,255,255,255
95750,-13.5,-1.5,0,255,255,255
96000,-13.5,-1.5,0,255,255,255
96250,-13.5,-1.5,0,255,255,255
96500,-13.5,-1.5,0,255,255,255
96750,-13.5,-1.5,0,255,255,255
97000,-13.5,-1.5,0,255,255,255
97250,-13.5,-1.5,0,255,255,255
97500,-13.5,-1.5,0,255,255,255
97750,-13.5,-1.5,0,255,255,255
98000,-13.5,-1.5,0,255,255,255
98250,-13.5,-1.5,0,255,255,255
98500,-13.5,-1.5,0,255,255,255
98750,-13.5,-1.5,0,255,255,255
99000,-13.5,-1.5,0,255,255,255
99250,-13.5,-1.5,0,255,255,255
99500,-13.5,-1.5,0,255,255,255
99750,-13.5,-1.5,0,255,255,255
100000,-13.5,-1.5,0,255,255,255
100250,-13.5,-1.5,0,255,255,255
100500,-13.5,-1.5,0,255,255,255
100750,-13.5,-1.5,0,255,255,255
101000,-13.5,-1.5,0,255,255,255
101250,-13.5,-1.5,0,255,255,255
101500,-13.5,-1.5,0,255,255,255
101750,-13.5,-1.5,0,255,255,255
102000,-13.5,-1.5,0,255,255,255
102250,-13.5,-1.5,0,255,255,255
102500,-13.5,-1.5,0,255,255,255
102750,-13.5,-1.5,0,255,255,255
103000,-13.5,-1.5,0,255,255,255
103250,-13.5,-1.5,0,255,255,255
103500,-13.5,-1.5,0,255,255,255
103750,-13.5,-1.5,0,255,255,255
104000,-13.5,-1.5,0,255,255,255
