Time [msec],x [m],y [m],z [m],Red,Green,Blue
0,-4.5,13.5,0,255,255,255
250,-4.4996,13.4905,0.0203,255,255,255
500,-4.4979,13.4548,0.0968,255,255,255
750,-4.4951,13.3942,0.2267,255,255,255
1000,-4.4912,13.3101,0.4068,255,255,255
1250,-4.4863,13.2042,0.6338,255,255,255
1500,-4.4805,13.078,0.9042,255,255,255
1750,-4.4738,12.9331,1.2146,255,255,255
2000,-4.4663,12.771,1.5618,255,255,255
2250,-4.458,12.5934,1.9423,255,255,255
2500,-4.4491,12.4017,2.3528,255,255,255
2750,-4.4396,12.1976,2.7899,255,255,255
3000,-4.4296,11.9827,3.2502,255,255,255
3250,-4.4191,11.7584,3.7304,255,255,255
3500,-4.4082,11.5264,4.2272,255,255,255
3750,-4.3971,11.2882,4.737,255,255,255
4000,-4.3857,11.0455,5.2567,255,255,255
4250,-4.3741,10.7997,5.7827,255,255,255
4500,-4.3624,10.5525,6.3118,255,255,255
4750,-4.3507,10.3053,6.8406,255,255,255
5000,-4.339,10.0599,7.3656,255,255,255
5250,-4.3275,9.8177,7.8836,255,255,255
5500,-4.3161,9.5803,8.3912,255,255,255
5750,-4.305,9.3493,8.885,255,255,255
6000,-4.2942,9.1262,9.3616,255,255,255
6250,-4.2838,8.9127,9.8177,255,255,255
6500,-4.2739,8.7103,10.2499,255,255,255
6750,-4.2645,8.5205,10.6549,255,255,255
7000,-4.2556,8.341,11.038,255,255,255
7250,-4.2472,8.1652,11.414,255,255,255
7500,-4.2391,7.9929,11.7831,255,255,255
7750,-4.2314,7.8241,12.1452,255,255,255
8000,-4.2242,7.6591,12.5003,255,255,255
8250,-4.2173,7.4977,12.8481,255,255,255
8500,-4.2109,7.3401,13.1887,255,255,255
8750,-4.2049,7.1862,13.5219,255,255,255
9000,-4.1993,7.0362,13.8477,255,255,255
9250,-4.1941,6.8902,14.1658,255,255,255
9500,-4.1894,6.7481,14.4763,255,255,255
9750,-4.1851,6.6099,14.779,255,255,255
10000,-4.1812,6.4759,15.0738,255,255,255
10250,-4.1778,6.3459,15.3606,255,255,255
10500,-4.1748,6.2201,15.6393,255,255,255
10750,-4.1723,6.0985,15.9098,255,255,255
11000,-4.1702,5.9812,16.1721,255,255,255
11250,-4.1686,5.8682,16.426,255,255,255
11500,-4.1675,5.7595,16.6714,255,255,255
11750,-4.1668,5.6553,16.9082,255,255,255
12000,-4.1666,5.5555,17.1363,255,255,255
12250,-4.1668,5.4603,17.3557,255,255,255
12500,-4.1675,5.3696,17.5661,255,255,255
12750,-4.1687,5.2835,17.7676,255,255,255
13000,-4.1704,5.2021,17.9599,255,255,255
13250,-4.1726,5.1254,18.1431,255,255,255
13500,-4.1753,5.0534,18.3171,255,255,255
13750,-4.1785,4.986,18.4823,255,255,255
14000,-4.1822,4.923,18.6388,255,255,255
14250,-4.1865,4.8643,18.787,255,255,255
14500,-4.1912,4.8096,18.9271,255,255,255
14750,-4.1964,4.7591,19.0594,255,255,255
15000,-4.2021,4.7123,19.1841,255,255,255
15250,-4.2082,4.6694,19.3015,255,255,255
15500,-4.2147,4.63,19.4118,255,255,255
15750,-4.2216,4.5942,19.5152,255,255,255
16000,-4.2289,4.5617,19.6122,255,255,255
16250,-4.2365,4.5324,19.7028,255,255,255
16500,-4.2445,4.5062,19.7874,255,255,255
16750,-4.2528,4.4829,19.8662,255,255,255
17000,-4.2614,4.4625,19.9394,255,255,255
17250,-4.2703,4.4447,20.0074,255,255,255
17500,-4.2795,4.4295,20.0704,255,255,255
17750,-4.2889,4.4168,20.1286,255,255,255
18000,-4.2986,4.4063,20.1823,255,255,255
18250,-4.3085,4.398,20.2317,255,255,255
18500,-4.3185,4.3917,20.2772,255,255,255
18750,-4.3288,4.3874,20.3189,255,255,255
19000,-4.3392,4.3848,20.3571,255,255,255
19250,-4.3497,4.3838,20.3921,255,255,255
19500,-4.3604,4.3843,20.4241,255,255,255
19750,-4.3712,4.3862,20.4534,255,255,255
20000,-4.3821,4.3893,20.4803,255,255,255
20250,-4.393,4.3936,20.5049,255,255,255
20500,-4.404,4.3988,20.5276,255,255,255
20750,-4.415,4.4048,20.5487,255,255,255
21000,-4.4261,4.4116,20.5682,255,255,255
21250,-4.4371,4.4189,20.5867,255,255,255
21500,-4.4482,4.4267,20.6041,255,255,255
21750,-4.459,4.4346,20.6207,255,255,255
22000,-4.4696,4.4425,20.6359,255,255,255
22250,-4.4799,4.4502,20.6499,255,255,255
22500,-4.49,4.4579,20.6626,255,255,255
22750,-4.4997,4.4654,20.6742,255,255,255
23000,-4.5092,4.4729,20.6845,255,255,255
23250,-4.5184,4.4803,20.6938,255,255,255
23500,-4.5274,4.4875,20.7019,255,255,255
23750,-4.5362,4.4947,20.7091,255,255,255
24000,-4.5447,4.5019,20.7152,255,255,255
24250,-4.5531,4.5089,20.7203,255,255,255
24500,-4.5612,4.5159,20.7245,255,255,255
24750,-4.5692,4.5228,20.7278,255,255,255
25000,-4.577,4.5297,20.7303,255,255,255
25250,-4.5847,4.5365,20.732,255,255,255
25500,-4.5922,4.5432,20.7328,255,255,255
25750,-4.5995,4.5499,20.733,255,255,255
26000,-4.6067,4.5565,20.7324,255,255,255
26250,-4.6138,4.5631,20.7312,255,255,255
26500,-4.6209,4.5697,20.7294,255,255,255
26750,-4.6278,4.5762,20.7269,255,255,255
27000,-4.6346,4.5827,20.724,255,255,255
27250,-4.6414,4.5892,20.7205,255,255,255
27500,-4.6481,4.5956,20.7166,255,255,255
27750,-4.6547,4.602,20.7122,255,255,255
28000,-4.6613,4.6084,20.7074,255,255,255
28250,-4.6679,4.6148,20.7023,255,255,255
28500,-4.6745,4.6212,20.6968,255,255,255
28750,-4.6811,4.6276,20.6911,255,255,255
29000,-4.6877,4.634,20.6852,255,255,255
29250,-4.6943,4.6403,20.679,255,255,255
29500,-4.7009,4.6467,20.6727,255,255,255
29750,-4.7075,4.6531,20.6663,255,255,255
30000,-4.7143,4.6595,20.6598,255,255,255
30250,-4.721,4.666,20.6532,255,255,255
30500,-4.7279,4.6724,20.6466,255,255,255
30750,-4.7348,4.6789,20.6401,255,255,255
31000,-4.7418,4.6853,20.6341,255,255,255
31250,-4.7488,4.6915,20.6297,255,255,255
31500,-4.7559,4.6974,20.6268,255,255,255
31750,-4.7629,4.703,20.6254,255,255,255
32000,-4.7699,4.7085,20.6255,255,255,255
32250,-4.777,4.7137,20.6269,255,255,255
32500,-4.784,4.7187,20.6297,255,255,255
32750,-4.7911,4.7235,20.6338,255,255,255
33000,-4.7981,4.7281,20.6391,255,255,255
33250,-4.8052,4.7325,20.6457,255,255,255
33500,-4.8123,4.7368,20.6535,255,255,255
33750,-4.8193,4.7409,20.6624,255,255,255
34000,-4.8264,4.7449,20.6724,255,255,255
34250,-4.8335,4.7487,20.6835,255,255,255
34500,-4.8406,4.7525,20.6956,255,255,255
34750,-4.8477,4.7561,20.7087,255,255,255
35000,-4.8548,4.7596,20.7228,255,255,255
35250,-4.8619,4.763,20.7377,255,255,255
35500,-4.869,4.7663,20.7534,255,255,255
35750,-4.8761,4.7695,20.77,255,255,255
36000,-4.8832,4.7727,20.7874,255,255,255
36250,-4.8903,4.7759,20.8055,255,255,255
36500,-4.8974,4.779,20.8242,255,255,255
36750,-4.9045,4.7821,20.8436,255,255,255
37000,-4.9116,4.7851,20.8636,255,255,255
37250,-4.9187,4.7882,20.8842,255,255,255
37500,-4.9259,4.7912,20.9053,255,255,255
37750,-4.933,4.7943,20.9269,255,255,255
38000,-4.9401,4.7973,20.9489,255,255,255
38250,-4.9472,4.8005,20.9713,255,255,255
38500,-4.9543,4.8036,20.994,255,255,255
38750,-4.9614,4.8068,21.0171,255,255,255
39000,-4.9685,4.8101,21.0404,255,255,255
39250,-4.9756,4.8135,21.0639,255,255,255
39500,-4.9827,4.8169,21.0877,255,255,255
39750,-4.9898,4.8205,21.1116,255,255,255
40000,-4.9969,4.8241,21.1355,255,255,255
40250,-5.004,4.8279,21.1596,255,255,255
40500,-5.0111,4.8318,21.1836,255,255,255
40750,-5.0182,4.8358,21.2076,255,255,255
41000,-5.0253,4.84,21.2316,255,255,255
41250,-5.0324,4.8444,21.2555,255,255,255
41500,-5.0394,4.8489,21.2792,255,255,255
41750,-5.0465,4.8536,21.3027,255,255,255
42000,-5.0536,4.8585,21.3259,255,255,255
42250,-5.0606,4.8636,21.3489,255,255,255
42500,-5.0677,4.8689,21.3716,255,255,255
42750,-5.0747,4.8744,21.3939,255,255,255
43000,-5.0818,4.8802,21.4159,255,255,255
43250,-5.0888,4.8862,21.4373,255,255,255
43500,-5.0958,4.8925,21.4583,255,255,255
43750,-5.1028,4.899,21.4788,255,255,255
44000,-5.1098,4.9058,21.4987,255,255,255
44250,-5.117,4.9133,21.5178,255,255,255
44500,-5.1246,4.922,21.5355,255,255,255
44750,-5.1326,4.9318,21.5519,255,255,255
45000,-5.1409,4.9427,21.5671,255,255,255
45250,-5.1496,4.9544,21.5811,255,255,255
45500,-5.1584,4.967,21.5939,255,255,255
45750,-5.1675,4.9802,21.6057,255,255,255
46000,-5.1767,4.9941,21.6164,255,255,255
46250,-5.1859,5.0083,21.6261,255,255,255
46500,-5.1952,5.023,21.6348,255,255,255
46750,-5.2045,5.0378,21.6427,255,255,255
47000,-5.2136,5.0527,21.6497,255,255,255
47250,-5.2227,5.0677,21.6559,255,255,255
47500,-5.2315,5.0825,21.6614,255,255,255
47750,-5.2401,5.0971,21.6662,255,255,255
48000,-5.2485,5.1114,21.6703,255,255,255
48250,-5.2564,5.1252,21.6738,255,255,255
48500,-5.264,5.1384,21.6767,255,255,255
48750,-5.2711,5.1509,21.6791,255,255,255
49000,-5.2777,5.1627,21.6811,255,255,255
49250,-5.2838,5.1735,21.6826,255,255,255
49500,-5.2892,5.1833,21.6838,255,255,255
49750,-5.294,5.1919,21.6847,255,255,255
50000,-5.298,5.1993,21.6853,255,255,255
50250,-5.3013,5.2053,21.6857,255,255,255
50500,-5.3038,5.2098,21.6859,255,255,255
50750,-5.3053,5.2128,21.686,255,255,255
51000,-5.306,5.214,21.686,255,255,255
51250,-5.306,5.214,21.686,255,255,255
51500,-5.306,5.214,21.686,255,255,255
51750,-5.306,5.214,21.686,255,255,255
52000,-5.306,5.214,21.686,255,255,255
52250,-5.306,5.214,21.686,255,255,255
52500,-5.306,5.214,21.686,255,255,255
52750,-5.306,5.214,21.686,255,255,255
53000,-5.306,5.214,21.686,255,255,255
53250,-5.306,5.214,21.686,255,255,255
53500,-5.306,5.214,21.686,255,255,255
53750,-5.306,5.214,21.686,255,255,255
54000,-5.306,5.214,21.686,255,255,255
54250,-5.3077,5.197,21.6321,255,255,255
54500,-5.312,5.1544,21.4516,255,255,255
54750,-5.3149,5.1264,21.19,255,255,255
55000,-5.3123,5.1539,20.8953,255,255,255
55250,-5.3002,5.2778,20.6152,255,255,255
55500,-5.2799,5.4853,20.3687,255,255,255
55750,-5.2594,5.6948,20.1232,255,255,255
56000,-5.2347,5.9489,19.8258,255,255,255
56250,-5.2,6.3066,19.4079,255,255,255
56500,-5.1592,6.7275,18.9162,255,255,255
56750,-5.1163,7.1695,18.3998,255,255,255
57000,-5.0754,7.5904,17.9078,255,255,255
57250,-5.0378,7.9763,17.4562,255,255,255
57500,-5.0003,8.3613,17.0057,255,255,255
57750,-4.9628,8.7463,16.5552,255,255,255
58000,-4.9253,9.1313,16.1047,255,255,255
58250,-4.8878,9.5163,15.6542,255,255,255
58500,-4.8503,9.9013,15.2037,255,255,255
58750,-4.8128,10.2863,14.7532,255,255,255
59000,-4.7753,10.6713,14.3027,255,255,255
59250,-4.7378,11.0563,13.8522,255,255,255
59500,-4.6998,11.4423,13.4042,255,255,255
59750,-4.6623,11.8273,12.9537,255,255,255
60000,-4.6248,12.2123,12.5032,255,255,255
60250,-4.5878,12.5983,12.0542,255,255,255
60500,-4.5503,12.9833,11.6037,255,255,255
60750,-4.5202,13.2928,11.2495,255,255,255
61000,-4.5064,13.4351,11.0745,255,255,255
61250,-4.5007,13.4926,10.9129,255,255,255
61500,-4.4977,13.5235,10.6662,255,255,255
61750,-4.4976,13.5242,10.4071,255,255,255
62000,-4.4989,13.5109,10.1646,255,255,255
62250,-4.5,13.5003,9.9653,255,255,255
62500,-4.5,13.5,9.811,255,255,255
62750,-4.5,13.5,9.6664,255,255,255
63000,-4.5,13.5,9.5293,255,255,255
63250,-4.5,13.5,9.3988,255,255,255
63500,-4.5,13.5,9.2736,255,255,255
63750,-4.5,13.5,9.1527,255,255,255
64000,-4.5,13.5,9.035,255,255,255
64250,-4.5,13.5,8.9194,255,255,255
64500,-4.5,13.5,8.8046,255,255,255
64750,-4.5,13.5,8.6898,255,255,255
65000,-4.5,13.5,8.5736,255,255,255
65250,-4.5,13.5,8.455,255,255,255
65500,-4.5,13.5,8.3329,255,255,255
65750,-4.5,13.5,8.208,255,255,255
66000,-4.5,13.5,8.083,255,255,255
66250,-4.5,13.5,7.958,255,255,255
66500,-4.5,13.5,7.833,255,255,255
66750,-4.5,13.5,7.708,255,255,255
67000,-4.5,13.5,7.583,255,255,255
67250,-4.5,13.5,7.458,255,255,255
67500,-4.5,13.5,7.333,255,255,255
67750,-4.5,13.5,7.208,255,255,255
68000,-4.5,13.5,7.083,255,255,255
68250,-4.5,13.5,6.958,255,255,255
68500,-4.5,13.5,6.833,255,255,255
68750,-4.5,13.5,6.708,255,255,255
69000,-4.5,13.5,6.583,255,255,255
69250,-4.5,13.5,6.458,255,255,255
69500,-4.5,13.5,6.333,255,255,255
69750,-4.5,13.5,6.208,255,255,255
70000,-4.5,13.5,6.083,255,255,255
70250,-4.5,13.5,5.958,255,255,255
70500,-4.5,13.5,5.833,255,255,255
70750,-4.5,13.5,5.708,255,255,255
71000,-4.5,13.5,5.583,255,255,255
71250,-4.5,13.5,5.458,255,255,255
71500,-4.5,13.5,5.333,255,255,255
71750,-4.5,13.5,5.208,255,255,255
72000,-4.5,13.5,5.083,255,255,255
72250,-4.5,13.5,4.958,255,255,255
72500,-4.5,13.5,4.834,255,255,255
72750,-4.5,13.5,4.709,255,255,255
73000,-4.5,13.5,4.584,255,255,255
73250,-4.5,13.5,4.459,255,255,255
73500,-4.5,13.5,4.334,255,255,255
73750,-4.5,13.5,4.209,255,255,255
74000,-4.5,13.5,4.084,255,255,255
74250,-4.5,13.5,3.959,255,255,255
74500,-4.5,13.5,3.834,255,255,255
74750,-4.5,13.5,3.709,255,255,255
75000,-4.5,13.5,3.584,255,255,255
75250,-4.5,13.5,3.459,255,255,255
75500,-4.5,13.5,3.334,255,255,255
75750,-4.5,13.5,3.209,255,255,255
76000,-4.5,13.5,3.084,255,255,255
76250,-4.5,13.5,2.959,255,255,255
76500,-4.5,13.5,2.834,255,255,255
76750,-4.5,13.5,2.709,255,255,255
77000,-4.5,13.5,2.584,255,255,255
77250,-4.5,13.5,2.459,255,255,255
77500,-4.5,13.5,2.334,255,255,255
77750,-4.5,13.5,2.209,255,255,255
78000,-4.5,13.5,2.084,255,255,255
78250,-4.5,13.5,1.959,255,255,255
78500,-4.5,13.5,1.834,255,255,255
78750,-4.5,13.5,1.709,255,255,255
79000,-4.5,13.5,1.584,255,255,255
79250,-4.5,13.5,1.459,255,255,255
79500,-4.5,13.5,1.334,255,255,255
79750,-4.5,13.5,1.209,255,255,255
80000,-4.5,13.5,1.084,255,255,255
80250,-4.5,13.5,0.959,255,255,255
80500,-4.5,13.5,0.834,255,255,255
80750,-4.5,13.5,0.709,255,255,255
81000,-4.5,13.5,0.584,255,255,255
81250,-4.5,13.5,0.4482,255,255,255
81500,-4.5,13.5,0.299,255,255,255
81750,-4.5,13.5,0.1588,255,255,255
82000,-4.5,13.5,0.0515,255,255,255
82250,-4.5,13.5,0.0012,255,255,255
82500,-4.5,13.5,0,255,255,255
82750,-4.5,13.5,0,255,255,255
83000,-4.5,13.5,0,255,255,255
83250,-4.5,13.5,0,255,255,255
83500,-4.5,13.5,0,255,255,255
83750,-4.5,13.5,0,255,255,255
84000,-4.5,13.5,0,255,255,255
84250,-4.5,13.5,0,255,255,255
84500,-4.5,13.5,0,255,255,255
84750,-4.5,13.5,0,255,255,255
85000,-4.5,13.5,0,255,255,255
85250,-4.5,13.5,0,255,255,255
85500,-4.5,13.5,0,255,255,255
85750,-4.5,13.5,0,255,255,255
86000,-4.5,13.5,0,255,255,255
86250,-4.5,13.5,0,255,255,255
86500,-4.5,13.5,0,255,255,255
86750,-4.5,13.5,0,255,255,255
87000,-4.5,13.5,0,255,255,255
87250,-4.5,13.5,0,255,255,255
87500,-4.5,13.5,0,255,255,255
87750,-4.5,13.5,0,255,255,255
88000,-4.5,13.5,0,255,255,255
88250,-4.5,13.5,0,255,255,255
88500,-4.5,13.5,0,255,255,255
88750,-4.5,13.5,0,255,255,255
89000,-4.5,13.5,0,255,255,255
89250,-4.5,13.5,0,255,255,255
89500,-4.5,13.5,0,255,255,255
89750,-4.5,13.5,0,255,255,255
90000,-4.5,13.5,0,255,255,255
90250,-4.5,13.5,0,255,255,255
90500,-4.5,13.5,0,255,255,255
90750,-4.5,13.5,0,255,255,255
91000,-4.5,13.5,0,255,255,255
91250,-4.5,13.5,0,255,255,255
91500,-4.5,13.5,0,255,255,255
91750,-4.5,13.5,0,255,255,255
92000,-4.5,13.5,0,255,255,255
92250,-4.5,13.5,0,255,255,255
92500,-4.5,13.5,0,255,255,255
92750,-4.5,13.5,0,255,255,255
93000,-4.5,13.5,0,255,255,255
93250,-4.5,13.5,0,255,255,255
93500,-4.5,13.5,0,255,255,255
93750,-4.5,13.5,0,255,255,255
94000,-4.5,13.5,0,255,255,255
94250,-4.5,13.5,0,255,255,255
94500,-4.5,13.5,0,255,255,255
94750,-4.5,13.5,0,255,255,255
95000,-4.5,13.5,0,255,255,255
95250,-4.5,13.5,0,255,255,255
95500,-4.5,13.5,0,255,255,255
95750,-4.5,13.5,0,255,255,255
96000,-4.5,13.5,0,255,255,255
96250,-4.5,13.5,0,255,255,255
96500,-4.5,13.5,0,255,255,255
96750,-4.5,13.5,0,255,255,255
97000,-4.5,13.5,0,255,255,255
97250,-4.5,13.5,0,255,255,255
97500,-4.5,13.5,0,255,255,255
97750,-4.5,13.5,0,255,255,255
98000,-4.5,13.5,0,255,255,255
98250,-4.5,13.5,0,255,255,255
98500,-4.5,13.5,0,255,255,255
98750,-4.5,13.5,0,255,255,255
99000,-4.5,13.5,0,255,255,255
99250,-4.5,13.5,0,255,255,255
99500,-4.5,13.5,0,255,255,255
99750,-4.5,13.5,0,255,255,255
100000,-4.5,13.5,0,255,255,255
100250,-4.5,13.5,0,255,255,255
100500,-4.5,13.5,0,255,255,255
100750,-4.5,13.5,0,255,255,255
101000,-4.5,13.5,0,255,255,255
101250,-4.5,13.5,0,255,255,255
101500,-4.5,13.5,0,255,255,255
101750,-4.5,13.5,0,255,255,255
102000,-4.5,13.5,0,255,255,255
102250,-4.5,13.5,0,255,255,255
102500,-4.5,13.5,0,255,255,255
102750,-4.5,13.5,0,255,255,255
103000,-4.5,13.5,0,255,255,255
103250,-4.5,13.5,0,255,255,255
103500,-4.5,13.5,0,255,255,255
103750,-4.5,13.5,0,255,255,255
104000,-4.5,13.5,0,255,255,255
