Time [msec],x [m],y [m],z [m],Red,Green,Blue
0,-13.5,-10.5,0,255,255,255
250,-13.4888,-10.4929,0.0213,255,255,255
500,-13.4468,-10.4664,0.1014,255,255,255
750,-13.3754,-10.4212,0.2375,255,255,255
1000,-13.2765,-10.3586,0.4262,255,255,255
1250,-13.1518,-10.2797,0.6641,255,255,255
1500,-13.0033,-10.1857,0.9475,255,255,255
1750,-12.8327,-10.0778,1.2729,255,255,255
2000,-12.6421,-9.957,1.6369,255,255,255
2250,-12.4331,-9.8247,2.0359,255,255,255
2500,-12.2077,-9.6818,2.4664,255,255,255
2750,-11.9677,-9.5297,2.9249,255,255,255
3000,-11.715,-9.3695,3.4079,255,255,255
3250,-11.4515,-9.2023,3.9119,255,255,255
3500,-11.1789,-9.0293,4.4333,255,255,255
3750,-10.8991,-8.8517,4.9687,255,255,255
4000,-10.6141,-8.6706,5.5145,255,255,255
4250,-10.3255,-8.4872,6.0672,255,255,255
4500,-10.0354,-8.3027,6.6234,255,255,255
4750,-9.7456,-8.1182,7.1794,255,255,255
5000,-9.4578,-7.9348,7.7318,255,255,255
5250,-9.1741,-7.7539,8.2771,255,255,255
5500,-8.8961,-7.5765,8.8117,255,255,255
5750,-8.6258,-7.4037,9.3321,255,255,255
6000,-8.3651,-7.2368,9.8349,255,255,255
6250,-8.1157,-7.077,10.3165,255,255,255
6500,-7.8796,-6.9253,10.7733,255,255,255
6750,-7.6585,-6.7829,11.202,255,255,255
7000,-7.4497,-6.6483,11.6078,255,255,255
7250,-7.245,-6.5168,12.0054,255,255,255
7500,-7.0445,-6.3884,12.3951,255,255,255
7750,-6.848,-6.263,12.7768,255,255,255
8000,-6.6558,-6.1409,13.1504,255,255,255
8250,-6.4678,-6.0218,13.5157,255,255,255
8500,-6.2841,-5.9061,13.8726,255,255,255
8750,-6.1047,-5.7935,14.221,255,255,255
9000,-5.9297,-5.6843,14.5608,255,255,255
9250,-5.7592,-5.5785,14.8918,255,255,255
9500,-5.5931,-5.476,15.214,255,255,255
9750,-5.4316,-5.3769,15.5272,255,255,255
10000,-5.2747,-5.2813,15.8313,255,255,255
10250,-5.1224,-5.1893,16.1262,255,255,255
10500,-4.9748,-5.1008,16.4118,255,255,255
10750,-4.832,-5.0158,16.6879,255,255,255
11000,-4.6939,-4.9346,16.9545,255,255,255
11250,-4.5608,-4.8569,17.2114,255,255,255
11500,-4.4325,-4.7831,17.4584,255,255,255
11750,-4.3091,-4.7129,17.6956,255,255,255
12000,-4.1908,-4.6466,17.9227,255,255,255
12250,-4.0775,-4.5841,18.1397,255,255,255
12500,-3.9694,-4.5255,18.3464,255,255,255
12750,-3.8664,-4.4709,18.5427,255,255,255
13000,-3.7686,-4.4201,18.7285,255,255,255
13250,-3.676,-4.3734,18.9036,255,255,255
13500,-3.5888,-4.3308,19.0682,255,255,255
13750,-3.5067,-4.2921,19.2225,255,255,255
14000,-3.4296,-4.2572,19.3669,255,255,255
14250,-3.3574,-4.226,19.5017,255,255,255
14500,-3.29,-4.1985,19.6271,255,255,255
14750,-3.2271,-4.1744,19.7435,255,255,255
15000,-3.1687,-4.1537,19.8512,255,255,255
15250,-3.1145,-4.1362,19.9505,255,255,255
15500,-3.0645,-4.1219,20.0417,255,255,255
15750,-3.0185,-4.1106,20.125,255,255,255
16000,-2.9764,-4.1021,20.2009,255,255,255
16250,-2.938,-4.0965,20.2695,255,255,255
16500,-2.9031,-4.0934,20.3312,255,255,255
16750,-2.8717,-4.0929,20.3863,255,255,255
17000,-2.8435,-4.0949,20.4351,255,255,255
17250,-2.8184,-4.0991,20.4779,255,255,255
17500,-2.7963,-4.1055,20.515,255,255,255
17750,-2.7771,-4.1139,20.5466,255,255,255
18000,-2.7605,-4.1243,20.5732,255,255,255
18250,-2.7465,-4.1365,20.5949,255,255,255
18500,-2.7349,-4.1504,20.6122,255,255,255
18750,-2.7255,-4.1659,20.6253,255,255,255
19000,-2.7182,-4.1829,20.6344,255,255,255
19250,-2.7129,-4.2012,20.64,255,255,255
19500,-2.7094,-4.2207,20.6423,255,255,255
19750,-2.7075,-4.2413,20.6415,255,255,255
20000,-2.7072,-4.263,20.6381,255,255,255
20250,-2.7082,-4.2855,20.6323,255,255,255
20500,-2.7104,-4.3087,20.6244,255,255,255
20750,-2.7138,-4.3326,20.6147,255,255,255
21000,-2.718,-4.357,20.6035,255,255,255
21250,-2.7231,-4.3818,20.5912,255,255,255
21500,-2.7289,-4.4067,20.5784,255,255,255
21750,-2.7355,-4.4312,20.5664,255,255,255
22000,-2.743,-4.4554,20.5552,255,255,255
22250,-2.7512,-4.4791,20.5449,255,255,255
22500,-2.7602,-4.5023,20.5355,255,255,255
22750,-2.7699,-4.525,20.5272,255,255,255
23000,-2.7802,-4.547,20.5199,255,255,255
23250,-2.7912,-4.5683,20.5138,255,255,255
23500,-2.8027,-4.589,20.509,255,255,255
23750,-2.8148,-4.6088,20.5054,255,255,255
24000,-2.8274,-4.6278,20.5032,255,255,255
24250,-2.8405,-4.646,20.5024,255,255,255
24500,-2.8541,-4.6631,20.5032,255,255,255
24750,-2.868,-4.6793,20.5055,255,255,255
25000,-2.8823,-4.6945,20.5094,255,255,255
25250,-2.8969,-4.7085,20.515,255,255,255
25500,-2.9119,-4.7214,20.5225,255,255,255
25750,-2.927,-4.733,20.5317,255,255,255
26000,-2.9424,-4.7434,20.5429,255,255,255
26250,-2.9579,-4.7527,20.5557,255,255,255
26500,-2.9733,-4.7614,20.5694,255,255,255
26750,-2.9887,-4.7697,20.584,255,255,255
27000,-3.004,-4.7775,20.5992,255,255,255
27250,-3.0193,-4.7848,20.6152,255,255,255
27500,-3.0345,-4.7918,20.6317,255,255,255
27750,-3.0497,-4.7985,20.6488,255,255,255
28000,-3.0649,-4.8049,20.6663,255,255,255
28250,-3.08,-4.8111,20.6841,255,255,255
28500,-3.0951,-4.8172,20.7023,255,255,255
28750,-3.1101,-4.8231,20.7206,255,255,255
29000,-3.1252,-4.8289,20.7391,255,255,255
29250,-3.1402,-4.8347,20.7577,255,255,255
29500,-3.1552,-4.8406,20.7762,255,255,255
29750,-3.1702,-4.8465,20.7947,255,255,255
30000,-3.1851,-4.8526,20.813,255,255,255
30250,-3.2001,-4.8588,20.831,255,255,255
30500,-3.215,-4.8652,20.8487,255,255,255
30750,-3.23,-4.872,20.866,255,255,255
31000,-3.2449,-4.879,20.8828,255,255,255
31250,-3.2599,-4.8864,20.8991,255,255,255
31500,-3.2748,-4.8942,20.9148,255,255,255
31750,-3.2898,-4.9025,20.9298,255,255,255
32000,-3.3048,-4.9114,20.9439,255,255,255
32250,-3.3198,-4.9207,20.9573,255,255,255
32500,-3.3348,-4.9307,20.9697,255,255,255
32750,-3.3498,-4.9414,20.981,255,255,255
33000,-3.3649,-4.9528,20.9913,255,255,255
33250,-3.3799,-4.9649,21.0005,255,255,255
33500,-3.3951,-4.9778,21.0084,255,255,255
33750,-3.4102,-4.9916,21.015,255,255,255
34000,-3.4254,-5.0063,21.0202,255,255,255
34250,-3.4406,-5.022,21.0239,255,255,255
34500,-3.4559,-5.0386,21.0261,255,255,255
34750,-3.4712,-5.0564,21.0267,255,255,255
35000,-3.4865,-5.0752,21.0256,255,255,255
35250,-3.5019,-5.0951,21.0227,255,255,255
35500,-3.5174,-5.1163,21.018,255,255,255
35750,-3.5329,-5.1384,21.0113,255,255,255
36000,-3.5483,-5.1606,21.0027,255,255,255
36250,-3.5638,-5.183,20.9923,255,255,255
36500,-3.5792,-5.2056,20.9801,255,255,255
36750,-3.5945,-5.2284,20.9663,255,255,255
37000,-3.6099,-5.2513,20.9511,255,255,255
37250,-3.6252,-5.2744,20.9344,255,255,255
37500,-3.6405,-5.2976,20.9165,255,255,255
37750,-3.6558,-5.321,20.8974,255,255,255
38000,-3.671,-5.3445,20.8772,255,255,255
38250,-3.6862,-5.3681,20.856,255,255,255
38500,-3.7014,-5.3919,20.8341,255,255,255
38750,-3.7166,-5.4158,20.8114,255,255,255
39000,-3.7317,-5.4399,20.788,255,255,255
39250,-3.7469,-5.464,20.7642,255,255,255
39500,-3.762,-5.4883,20.7399,255,255,255
39750,-3.7771,-5.5127,20.7154,255,255,255
40000,-3.7922,-5.5371,20.6907,255,255,255
40250,-3.8073,-5.5617,20.6659,255,255,255
40500,-3.8224,-5.5864,20.6411,255,255,255
40750,-3.8374,-5.6111,20.6165,255,255,255
41000,-3.8525,-5.636,20.5921,255,255,255
41250,-3.8675,-5.6609,20.5681,255,255,255
41500,-3.8825,-5.6859,20.5446,255,255,255
41750,-3.8975,-5.7109,20.5217,255,255,255
42000,-3.9125,-5.7361,20.4994,255,255,255
42250,-3.9275,-5.7612,20.478,255,255,255
42500,-3.9425,-5.7865,20.4575,255,255,255
42750,-3.9575,-5.8118,20.438,255,255,255
43000,-3.9725,-5.8371,20.4196,255,255,255
43250,-3.9875,-5.8625,20.4025,255,255,255
43500,-4.0025,-5.8879,20.3867,255,255,255
43750,-4.0175,-5.9133,20.3724,255,255,255
44000,-4.0325,-5.9387,20.3597,255,255,255
44250,-4.0475,-5.9642,20.3486,255,255,255
44500,-4.0625,-5.9897,20.3394,255,255,255
44750,-4.0779,-6.0155,20.3324,255,255,255
45000,-4.0942,-6.0418,20.3282,255,255,255
45250,-4.1115,-6.0687,20.3266,255,255,255
45500,-4.1295,-6.0959,20.3275,255,255,255
45750,-4.1481,-6.1234,20.3306,255,255,255
46000,-4.1672,-6.151,20.3357,255,255,255
46250,-4.1866,-6.1786,20.3426,255,255,255
46500,-4.2063,-6.2059,20.3511,255,255,255
46750,-4.2261,-6.233,20.361,255,255,255
47000,-4.2459,-6.2597,20.3721,255,255,255
47250,-4.2655,-6.2858,20.3841,255,255,255
47500,-4.2848,-6.3112,20.3969,255,255,255
47750,-4.3036,-6.3358,20.4102,255,255,255
48000,-4.3219,-6.3595,20.4239,255,255,255
48250,-4.3396,-6.382,20.4377,255,255,255
48500,-4.3564,-6.4033,20.4514,255,255,255
48750,-4.3723,-6.4233,20.4649,255,255,255
49000,-4.387,-6.4418,20.4779,255,255,255
49250,-4.4006,-6.4586,20.4901,255,255,255
49500,-4.4129,-6.4737,20.5015,255,255,255
49750,-4.4237,-6.4869,20.5117,255,255,255
50000,-4.4328,-6.4981,20.5207,255,255,255
50250,-4.4403,-6.5071,20.5281,255,255,255
50500,-4.4459,-6.5139,20.5337,255,255,255
50750,-4.4495,-6.5182,20.5374,255,255,255
51000,-4.451,-6.52,20.539,255,255,255
51250,-4.451,-6.52,20.539,255,255,255
51500,-4.451,-6.52,20.539,255,255,255
51750,-4.451,-6.52,20.539,255,255,255
52000,-4.451,-6.52,20.539,255,255,255
52250,-4.451,-6.52,20.539,255,255,255
52500,-4.451,-6.52,20.539,255,255,255
52750,-4.451,-6.52,20.539,255,255,255
53000,-4.451,-6.52,20.539,255,255,255
53250,-4.451,-6.52,20.539,255,255,255
53500,-4.451,-6.52,20.539,255,255,255
53750,-4.451,-6.52,20.539,255,255,255
54000,-4.451,-6.52,20.539,255,255,255
54250,-4.432,-6.5115,20.483,255,255,255
54500,-4.3844,-6.4903,20.2973,255,255,255
54750,-4.3532,-6.4762,20.032,255,255,255
55000,-4.3841,-6.4895,19.7401,255,255,255
55250,-4.5228,-6.5506,19.4743,255,255,255
55500,-4.7551,-6.6531,19.2521,255,255,255
55750,-4.9896,-6.7566,19.0311,255,255,255
56000,-5.2813,-6.8852,18.7561,255,255,255
56250,-5.6973,-7.0682,18.3636,255,255,255
56500,-6.1711,-7.2764,17.9164,255,255,255
56750,-6.6334,-7.4795,17.4797,255,255,255
57000,-7.0536,-7.6641,17.0825,255,255,255
57250,-7.4726,-7.8481,16.6865,255,255,255
57500,-7.8916,-8.0321,16.2905,255,255,255
57750,-8.3106,-8.2161,15.8945,255,255,255
58000,-8.7296,-8.4001,15.4985,255,255,255
58250,-9.1486,-8.5841,15.1025,255,255,255
58500,-9.5676,-8.7681,14.7065,255,255,255
58750,-9.9876,-8.9555,14.3139,255,255,255
59000,-10.4066,-9.14,13.9184,255,255,255
59250,-10.8256,-9.3245,13.5229,255,255,255
59500,-11.2446,-9.509,13.1274,255,255,255
59750,-11.6636,-9.6935,12.7319,255,255,255
60000,-12.1016,-9.8853,12.3199,255,255,255
60250,-12.5496,-10.0824,11.8969,255,255,255
60500,-12.9378,-10.2531,11.5303,255,255,255
60750,-13.2142,-10.3747,11.2769,255,255,255
61000,-13.3931,-10.4532,11.0993,255,255,255
61250,-13.4905,-10.4958,10.9131,255,255,255
61500,-13.5266,-10.5117,10.6688,255,255,255
61750,-13.5274,-10.5121,10.4098,255,255,255
62000,-13.5123,-10.5054,10.1658,255,255,255
62250,-13.5003,-10.5002,9.9654,255,255,255
62500,-13.5,-10.5,9.811,255,255,255
62750,-13.5,-10.5,9.6664,255,255,255
63000,-13.5,-10.5,9.5293,255,255,255
63250,-13.5,-10.5,9.3988,255,255,255
63500,-13.5,-10.5,9.2736,255,255,255
63750,-13.5,-10.5,9.1527,255,255,255
64000,-13.5,-10.5,9.035,255,255,255
64250,-13.5,-10.5,8.9194,255,255,255
64500,-13.5,-10.5,8.8046,255,255,255
64750,-13.5,-10.5,8.6898,255,255,255
65000,-13.5,-10.5,8.5736,255,255,255
65250,-13.5,-10.5,8.455,255,255,255
65500,-13.5,-10.5,8.3329,255,255,255
65750,-13.5,-10.5,8.208,255,255,255
66000,-13.5,-10.5,8.083,255,255,255
66250,-13.5,-10.5,7.958,255,255,255
66500,-13.5,-10.5,7.833,255,255,255
66750,-13.5,-10.5,7.708,255,255,255
67000,-13.5,-10.5,7.583,255,255,255
67250,-13.5,-10.5,7.458,255,255,255
67500,-13.5,-10.5,7.333,255,255,255
67750,-13.5,-10.5,7.208,255,255,255
68000,-13.5,-10.5,7.083,255,255,255
68250,-13.5,-10.5,6.958,255,255,255
68500,-13.5,-10.5,6.833,255,255,255
68750,-13.5,-10.5,6.708,255,255,255
69000,-13.5,-10.5,6.583,255,255,255
69250,-13.5,-10.5,6.458,255,255,255
69500,-13.5,-10.5,6.333,255,255,255
69750,-13.5,-10.5,6.208,255,255,255
70000,-13.5,-10.5,6.083,255,255,255
70250,-13.5,-10.5,5.958,255,255,255
70500,-13.5,-10.5,5.833,255,255,255
70750,-13.5,-10.5,5.708,255,255,255
71000,-13.5,-10.5,5.583,255,255,255
71250,-13.5,-10.5,5.458,255,255,255
71500,-13.5,-10.5,5.333,255,255,255
71750,-13.5,-10.5,5.208,255,255,255
72000,-13.5,-10.5,5.083,255,255,255
72250,-13.5,-10.5,4.958,255,255,255
72500,-13.5,-10.5,4.834,255,255,255
72750,-13.5,-10.5,4.709,255,255,255
73000,-13.5,-10.5,4.584,255,255,255
73250,-13.5,-10.5,4.459,255,255,255
73500,-13.5,-10.5,4.334,255,255,255
73750,-13.5,-10.5,4.209,255,255,255
74000,-13.5,-10.5,4.084,255,255,255
74250,-13.5,-10.5,3.959,255,255,255
74500,-13.5,-10.5,3.834,255,255,255
74750,-13.5,-10.5,3.709,255,255,255
75000,-13.5,-10.5,3.584,255,255,255
75250,-13.5,-10.5,3.459,255,255,255
75500,-13.5,-10.5,3.334,255,255,255
75750,-13.5,-10.5,3.209,255,255,255
76000,-13.5,-10.5,3.084,255,255,255
76250,-13.5,-10.5,2.959,255,255,255
76500,-13.5,-10.5,2.834,255,255,255
76750,-13.5,-10.5,2.709,255,255,255
77000,-13.5,-10.5,2.584,255,255,255
77250,-13.5,-10.5,2.459,255,255,255
77500,-13.5,-10.5,2.334,255,255,255
77750,-13.5,-10.5,2.209,255,255,255
78000,-13.5,-10.5,2.084,255,255,255
78250,-13.5,-10.5,1.959,255,255,255
78500,-13.5,-10.5,1.834,255,255,255
78750,-13.5,-10.5,1.709,255,255,255
79000,-13.5,-10.5,1.584,255,255,255
79250,-13.5,-10.5,1.459,255,255,255
79500,-13.5,-10.5,1.334,255,255,255
79750,-13.5,-10.5,1.209,255,255,255
80000,-13.5,-10.5,1.084,255,255,255
80250,-13.5,-10.5,0.959,255,255,255
80500,-13.5,-10.5,0.834,255,255,255
80750,-13.5,-10.5,0.709,255,255,255
81000,-13.5,-10.5,0.584,255,255,255
81250,-13.5,-10.5,0.4482,255,255,255
81500,-13.5,-10.5,0.299,255,255,255
81750,-13.5,-10.5,0.1588,255,255,255
82000,-13.5,-10.5,0.0515,255,255,255
82250,-13.5,-10.5,0.0012,255,255,255
82500,-13.5,-10.5,0,255,255,255
82750,-13.5,-10.5,0,255,255,255
83000,-13.5,-10.5,0,255,255,255
83250,-13.5,-10.5,0,255,255,255
83500,-13.5,-10.5,0,255,255,255
83750,-13.5,-10.5,0,255,255,255
84000,-13.5,-10.5,0,255,255,255
84250,-13.5,-10.5,0,255,255,255
84500,-13.5,-10.5,0,255,255,255
84750,-13.5,-10.5,0,255,255,255
85000,-13.5,-10.5,0,255,255,255
85250,-13.5,-10.5,0,255,255,255
85500,-13.5,-10.5,0,255,255,255
85750,-13.5,-10.5,0,255,255,255
86000,-13.5,-10.5,0,255,255,255
86250,-13.5,-10.5,0,255,255,255
86500,-13.5,-10.5,0,255,255,255
86750,-13.5,-10.5,0,255,255,255
87000,-13.5,-10.5,0,255,255,255
87250,-13.5,-10.5,0,255,255,255
87500,-13.5,-10.5,0,255,255,255
87750,-13.5,-10.5,0,255,255,255
88000,-13.5,-10.5,0,255,255,255
88250,-13.5,-10.5,0,255,255,255
88500,-13.5,-10.5,0,255,255,255
88750,-13.5,-10.5,0,255,255,255
89000,-13.5,-10.5,0,255,255,255
89250,-13.5,-10.5,0,255,255,255
89500,-13.5,-10.5,0,255,255,255
89750,-13.5,-10.5,0,255,255,255
90000,-13.5,-10.5,0,255,255,255
90250,-13.5,-10.5,0,255,255,255
90500,-13.5,-10.5,0,255,255,255
90750,-13.5,-10.5,0,255,255,255
91000,-13.5,-10.5,0,255,255,255
91250,-13.5,-10.5,0,255,255,255
91500,-13.5,-10.5,0,255,255,255
91750,-13.5,-10.5,0,255,255,255
92000,-13.5,-10.5,0,255,255,255
92250,-13.5,-10.5,0,255,255,255
92500,-13.5,-10.5,0,255,255,255
92750,-13.5,-10.5,0,255,255,255
93000,-13.5,-10.5,0,255,255,255
93250,-13.5,-10.5,0,255,255,255
93500,-13.5,-10.5,0,255,255,255
93750,-13.5,-10.5,0,255,255,255
94000,-13.5,-10.5,0,255,255,255
94250,-13.5,-10.5,0,255,255,255
94500,-13.5,-10.5,0,255,255,255
94750,-13.5,-10.5,0,255,255,255
95000,-13.5,-10.5,0,255,255,255
95250,-13.5,-10.5,0,255,255,255
95500,-13.5,-10.5,0,255,255,255
95750,-13.5,-10.5,0,255,255,255
96000,-13.5,-10.5,0,255,255,255
96250,-13.5,-10.5,0,255,255,255
96500,-13.5,-10.5,0,255,255,255
96750,-13.5,-10.5,0,255,255,255
97000,-13.5,-10.5,0,255,255,255
97250,-13.5,-10.5,0,255,255,255
97500,-13.5,-10.5,0,255,255,255
97750,-13.5,-10.5,0,255,255,255
98000,-13.5,-10.5,0,255,255,255
98250,-13.5,-10.5,0,255,255,255
98500,-13.5,-10.5,0,255,255,255
98750,-13.5,-10.5,0,255,255,255
99000,-13.5,-10.5,0,255,255,255
99250,-13.5,-10.5,0,255,255,255
99500,-13.5,-10.5,0,255,255,255
99750,-13.5,-10.5,0,255,255,255
100000,-13.5,-10.5,0,255,255,255
100250,-13.5,-10.5,0,255,255,255
100500,-13.5,-10.5,0,255,255,255
100750,-13.5,-10.5,0,255,255,255
101000,-13.5,-10.5,0,255,255,255
101250,-13.5,-10.5,0,255,255,255
101500,-13.5,-10.5,0,255,255,255
101750,-13.5,-10.5,0,255,255,255
102000,-13.5,-10.5,0,255,255,255
102250,-13.5,-10.5,0,255,255,255
102500,-13.5,-10.5,0,255,255,255
102750,-13.5,-10.5,0,255,255,255
103000,-13.5,-10.5,0,255,255,255
103250,-13.5,-10.5,0,255,255,255
103500,-13.5,-10.5,0,255,255,255
103750,-13.5,-10.5,0,255,255,255
104000,-13.5,-10.5,0,255,255,255
