Time [msec],x [m],y [m],z [m],Red,Green,Blue
0,-3,3,0,255,255,255
250,-3,3,0.0252,255,255,255
500,-3,3,0.1182,255,255,255
750,-3,3,0.2724,255,255,255
1000,-3,3,0.4803,255,255,255
1250,-3,3,0.7345,255,255,255
1500,-3,3,1.0275,255,255,255
1750,-3,3,1.3517,255,255,255
2000,-3,3,1.6997,255,255,255
2250,-3,3,2.064,255,255,255
2500,-3,3,2.437,255,255,255
2750,-3,3,2.8113,255,255,255
3000,-3,3,3.1793,255,255,255
3250,-3,3,3.5336,255,255,255
3500,-3,3,3.8667,255,255,255
3750,-3,3,4.171,255,255,255
4000,-3,3,4.4391,255,255,255
4250,-3,3,4.6634,255,255,255
4500,-3,3,4.8365,255,255,255
4750,-3,3,4.9508,255,255,255
5000,-3,3,4.9989,255,255,255
5250,-3,3,5,255,255,255
5500,-3,3,5,255,255,255
5750,-3,3,5,255,255,255
6000,-3,3,5,255,255,255
6250,-3,3.002,4.9993,255,255,255
6500,-2.9998,3.0098,4.9966,255,255,255
6750,-2.9995,3.023,4.9919,255,255,255
7000,-2.9991,3.0414,4.9854,255,255,255
7250,-2.9986,3.0648,4.9772,255,255,255
7500,-2.998,3.0929,4.9674,255,255,255
7750,-2.9973,3.1254,4.956,255,255,255
8000,-2.9966,3.162,4.9432,255,255,255
8250,-2.9957,3.2025,4.929,255,255,255
8500,-2.9949,3.2466,4.9136,255,255,255
8750,-2.994,3.294,4.897,255,255,255
9000,-2.993,3.3444,4.8794,255,255,255
9250,-2.992,3.3976,4.8608,255,255,255
9500,-2.9911,3.4534,4.8413,255,255,255
9750,-2.9901,3.5113,4.8211,255,255,255
10000,-2.9891,3.5712,4.8003,255,255,255
10250,-2.9881,3.6328,4.7788,255,255,255
10500,-2.9871,3.6959,4.7569,255,255,255
10750,-2.9862,3.76,4.7347,255,255,255
11000,-2.9853,3.8251,4.7121,255,255,255
11250,-2.9844,3.8907,4.6894,255,255,255
11500,-2.9836,3.9567,4.6666,255,255,255
11750,-2.9829,4.0227,4.6438,255,255,255
12000,-2.9822,4.0885,4.6211,255,255,255
12250,-2.9817,4.1538,4.5987,255,255,255
12500,-2.9812,4.2184,4.5765,255,255,255
12750,-2.9808,4.2819,4.5548,255,255,255
13000,-2.9806,4.3441,4.5335,255,255,255
13250,-2.9805,4.4048,4.5129,255,255,255
13500,-2.9805,4.4636,4.493,255,255,255
13750,-2.9806,4.5203,4.4738,255,255,255
14000,-2.9809,4.5746,4.4556,255,255,255
14250,-2.9813,4.6262,4.4383,255,255,255
14500,-2.982,4.6749,4.4222,255,255,255
14750,-2.9828,4.7204,4.4072,255,255,255
15000,-2.9837,4.7625,4.3935,255,255,255
15250,-2.9849,4.8007,4.3812,255,255,255
15500,-2.9863,4.835,4.3703,255,255,255
15750,-2.9879,4.8649,4.3611,255,255,255
16000,-2.9898,4.8903,4.3535,255,255,255
16250,-2.9918,4.9109,4.3476,255,255,255
16500,-2.9941,4.9263,4.3437,255,255,255
16750,-2.9967,4.9364,4.3417,255,255,255
17000,-2.9995,4.9408,4.3418,255,255,255
17250,-3.0048,4.9414,4.3447,255,255,255
17500,-3.0166,4.9418,4.352,255,255,255
17750,-3.0346,4.9422,4.3633,255,255,255
18000,-3.0586,4.9426,4.3787,255,255,255
18250,-3.0883,4.9429,4.3979,255,255,255
18500,-3.1234,4.9432,4.421,255,255,255
18750,-3.1637,4.9434,4.4477,255,255,255
19000,-3.2089,4.9436,4.4779,255,255,255
19250,-3.2587,4.9438,4.5115,255,255,255
19500,-3.3128,4.9439,4.5484,255,255,255
19750,-3.3709,4.944,4.5885,255,255,255
20000,-3.4328,4.9441,4.6315,255,255,255
20250,-3.4983,4.9442,4.6775,255,255,255
20500,-3.5669,4.9442,4.7263,255,255,255
20750,-3.6385,4.9442,4.7777,255,255,255
21000,-3.7127,4.9442,4.8317,255,255,255
21250,-3.7894,4.9441,4.888,255,255,255
21500,-3.8682,4.9441,4.9467,255,255,255
21750,-3.9488,4.944,5.0075,255,255,255
22000,-4.0309,4.9439,5.0704,255,255,255
22250,-4.1144,4.9438,5.1352,255,255,255
22500,-4.1988,4.9436,5.2017,255,255,255
22750,-4.284,4.9435,5.27,255,255,255
23000,-4.3697,4.9434,5.3397,255,255,255
23250,-4.4555,4.9432,5.411,255,255,255
23500,-4.5412,4.9431,5.4835,255,255,255
23750,-4.6266,4.9429,5.5571,255,255,255
24000,-4.7113,4.9427,5.6318,255,255,255
24250,-4.7951,4.9426,5.7075,255,255,255
24500,-4.8777,4.9424,5.7839,255,255,255
24750,-4.9588,4.9422,5.8611,255,255,255
25000,-5.0382,4.9421,5.9387,255,255,255
25250,-5.1155,4.9419,6.0169,255,255,255
25500,-5.1905,4.9418,6.0953,255,255,255
25750,-5.263,4.9416,6.1739,255,255,255
26000,-5.3326,4.9415,6.2525,255,255,255
26250,-5.399,4.9414,6.3311,255,255,255
26500,-5.4621,4.9413,6.4095,255,255,255
26750,-5.5214,4.9412,6.4876,255,255,255
27000,-5.5768,4.9411,6.5653,255,255,255
27250,-5.628,4.9411,6.6424,255,255,255
27500,-5.6746,4.941,6.7188,255,255,255
27750,-5.7165,4.941,6.7944,255,255,255
28000,-5.7531,4.9409,6.8689,255,255,255
28250,-5.7842,4.9406,6.9421,255,255,255
28500,-5.8103,4.9401,7.0139,255,255,255
28750,-5.8316,4.9392,7.0844,255,255,255
29000,-5.8487,4.938,7.1534,255,255,255
29250,-5.8618,4.9363,7.2209,255,255,255
29500,-5.8714,4.9343,7.287,255,255,255
29750,-5.8778,4.9317,7.3516,255,255,255
30000,-5.8815,4.9286,7.4147,255,255,255
30250,-5.8827,4.9249,7.4763,255,255,255
30500,-5.882,4.9206,7.5363,255,255,255
30750,-5.8797,4.9157,7.5948,255,255,255
31000,-5.8762,4.91,7.6517,255,255,255
31250,-5.8719,4.9036,7.707,255,255,255
31500,-5.8671,4.8964,7.7606,255,255,255
31750,-5.8622,4.8884,7.8126,255,255,255
32000,-5.8577,4.8795,7.8629,255,255,255
32250,-5.8539,4.8697,7.9115,255,255,255
32500,-5.8512,4.8589,7.9584,255,255,255
32750,-5.85,4.8471,8.0036,255,255,255
33000,-5.85,4.8344,8.0471,255,255,255
33250,-5.85,4.8212,8.0891,255,255,255
33500,-5.85,4.8075,8.1297,255,255,255
33750,-5.85,4.7934,8.1688,255,255,255
34000,-5.85,4.7789,8.2064,255,255,255
34250,-5.85,4.7642,8.2426,255,255,255
34500,-5.85,4.7492,8.2773,255,255,255
34750,-5.85,4.7341,8.3106,255,255,255
35000,-5.85,4.7189,8.3424,255,255,255
35250,-5.85,4.7036,8.3729,255,255,255
35500,-5.85,4.6883,8.4019,255,255,255
35750,-5.85,4.6731,8.4295,255,255,255
36000,-5.85,4.6581,8.4557,255,255,255
36250,-5.85,4.6432,8.4805,255,255,255
36500,-5.85,4.6286,8.5039,255,255,255
36750,-5.85,4.6144,8.5259,255,255,255
37000,-5.85,4.6005,8.5466,255,255,255
37250,-5.85,4.587,8.5659,255,255,255
37500,-5.85,4.5741,8.5838,255,255,255
37750,-5.85,4.5617,8.6004,255,255,255
38000,-5.85,4.5499,8.6156,255,255,255
38250,-5.85,4.5388,8.6295,255,255,255
38500,-5.85,4.5285,8.642,255,255,255
38750,-5.85,4.519,8.6532,255,255,255
39000,-5.85,4.5103,8.6631,255,255,255
39250,-5.85,4.5026,8.6717,255,255,255
39500,-5.85,4.4958,8.679,255,255,255
39750,-5.85,4.4901,8.6849,255,255,255
40000,-5.85,4.4855,8.6896,255,255,255
40250,-5.85,4.4821,8.693,255,255,255
40500,-5.85,4.4799,8.6951,255,255,255
40750,-5.85,4.479,8.696,255,255,255
41000,-5.85,4.479,8.696,255,255,255
41250,-5.85,4.479,8.696,255,255,255
41500,-5.85,4.479,8.696,255,255,255
41750,-5.85,4.479,8.696,255,255,255
42000,-5.85,4.479,8.696,255,255,255
42250,-5.85,4.479,8.696,255,255,255
42500,-5.85,4.479,8.696,255,255,255
42750,-5.85,4.479,8.696,255,255,255
43000,-5.85,4.479,8.696,255,255,255
43250,-5.85,4.479,8.696,255,255,255
43500,-5.85,4.479,8.696,255,255,255
43750,-5.8369,4.4722,8.702,255,255,255
44000,-5.7887,4.4472,8.724,255,255,255
44250,-5.7085,4.4056,8.7607,255,255,255
44500,-5.5999,4.3492,8.8104,255,255,255
44750,-5.4668,4.2801,8.8713,255,255,255
45000,-5.3127,4.2002,8.9419,255,255,255
45250,-5.1413,4.1112,9.0202,255,255,255
45500,-4.9564,4.0153,9.1048,255,255,255
45750,-4.7617,3.9142,9.1939,255,255,255
46000,-4.5608,3.81,9.2859,255,255,255
46250,-4.3574,3.7044,9.3789,255,255,255
46500,-4.1553,3.5995,9.4714,255,255,255
46750,-3.9581,3.4972,9.5616,255,255,255
47000,-3.7695,3.3993,9.6479,255,255,255
47250,-3.5932,3.3078,9.7286,255,255,255
47500,-3.4329,3.2246,9.8019,255,255,255
47750,-3.2922,3.1517,9.8663,255,255,255
48000,-3.175,3.0908,9.9199,255,255,255
48250,-3.0849,3.044,9.9612,255,255,255
48500,-3.0255,3.0132,9.9883,255,255,255
48750,-3.0005,3.0003,9.9998,255,255,255
49000,-3,3,10,255,255,255
49250,-3,3,10,255,255,255
49500,-3,3,10,255,255,255
49750,-3,3,10,255,255,255
50000,-3,3,10,255,255,255
