Time [msec],x [m],y [m],z [m],Red,Green,Blue
0,-1.5,-7.5,0,255,255,255
250,-1.5004,-7.5001,0.0009,255,255,255
500,-1.5018,-7.5005,0.0046,255,255,255
750,-1.5042,-7.5012,0.0109,255,255,255
1000,-1.5076,-7.5022,0.0199,255,255,255
1250,-1.5121,-7.5035,0.0316,255,255,255
1500,-1.5176,-7.5051,0.0459,255,255,255
1750,-1.5242,-7.507,0.0629,255,255,255
2000,-1.5317,-7.5092,0.0826,255,255,255
2250,-1.5402,-7.5117,0.1048,255,255,255
2500,-1.5498,-7.5145,0.1297,255,255,255
2750,-1.5603,-7.5175,0.1571,255,255,255
3000,-1.5718,-7.5209,0.1872,255,255,255
3250,-1.5844,-7.5245,0.2198,255,255,255
3500,-1.5978,-7.5285,0.2549,255,255,255
3750,-1.6123,-7.5327,0.2926,255,255,255
4000,-1.6277,-7.5372,0.3328,255,255,255
4250,-1.6441,-7.5419,0.3755,255,255,255
4500,-1.6615,-7.547,0.4208,255,255,255
4750,-1.6798,-7.5523,0.4685,255,255,255
5000,-1.6991,-7.5579,0.5186,255,255,255
5250,-1.7193,-7.5638,0.5713,255,255,255
5500,-1.7404,-7.5699,0.6263,255,255,255
5750,-1.7625,-7.5764,0.6838,255,255,255
6000,-1.7854,-7.5831,0.7437,255,255,255
6250,-1.8094,-7.59,0.806,255,255,255
6500,-1.8342,-7.5972,0.8707,255,255,255
6750,-1.8599,-7.6047,0.9378,255,255,255
7000,-1.8866,-7.6125,1.0072,255,255,255
7250,-1.9141,-7.6205,1.079,255,255,255
7500,-1.9426,-7.6288,1.1531,255,255,255
7750,-1.9719,-7.6373,1.2295,255,255,255
8000,-2.0021,-7.6461,1.3082,255,255,255
8250,-2.0332,-7.6551,1.3892,255,255,255
8500,-2.0652,-7.6644,1.4725,255,255,255
8750,-2.098,-7.674,1.5581,255,255,255
9000,-2.1317,-7.6838,1.6458,255,255,255
9250,-2.1663,-7.6938,1.7359,255,255,255
9500,-2.2017,-7.7041,1.8281,255,255,255
9750,-2.2379,-7.7147,1.9226,255,255,255
10000,-2.275,-7.7255,2.0192,255,255,255
10250,-2.3129,-7.7365,2.1181,255,255,255
10500,-2.3517,-7.7478,2.2191,255,255,255
10750,-2.3913,-7.7593,2.3222,255,255,255
11000,-2.4317,-7.7711,2.4275,255,255,255
11250,-2.4729,-7.7831,2.5349,255,255,255
11500,-2.515,-7.7953,2.6444,255,255,255
11750,-2.5578,-7.8078,2.7561,255,255,255
12000,-2.6015,-7.8205,2.8698,255,255,255
12250,-2.6459,-7.8334,2.9855,255,255,255
12500,-2.6911,-7.8466,3.1034,255,255,255
12750,-2.7371,-7.8599,3.2232,255,255,255
13000,-2.7839,-7.8736,3.3451,255,255,255
13250,-2.8315,-7.8874,3.469,255,255,255
13500,-2.8798,-7.9014,3.5949,255,255,255
13750,-2.9289,-7.9157,3.7228,255,255,255
14000,-2.9787,-7.9302,3.8527,255,255,255
14250,-3.0293,-7.945,3.9845,255,255,255
14500,-3.0807,-7.9599,4.1183,255,255,255
14750,-3.1328,-7.975,4.254,255,255,255
15000,-3.1856,-7.9904,4.3916,255,255,255
15250,-3.2391,-8.006,4.5312,255,255,255
15500,-3.2934,-8.0218,4.6726,255,255,255
15750,-3.3484,-8.0378,4.8159,255,255,255
16000,-3.4041,-8.054,4.961,255,255,255
16250,-3.4605,-8.0704,5.108,255,255,255
16500,-3.5177,-8.087,5.2569,255,255,255
16750,-3.5755,-8.1039,5.4076,255,255,255
17000,-3.634,-8.1209,5.56,255,255,255
17250,-3.6932,-8.1381,5.7143,255,255,255
17500,-3.7531,-8.1555,5.8703,255,255,255
17750,-3.8137,-8.1732,6.0281,255,255,255
18000,-3.8749,-8.191,6.1877,255,255,255
18250,-3.9368,-8.209,6.349,255,255,255
18500,-3.9994,-8.2272,6.512,255,255,255
18750,-4.0626,-8.2456,6.6768,255,255,255
19000,-4.1265,-8.2642,6.8432,255,255,255
19250,-4.191,-8.283,7.0113,255,255,255
19500,-4.2562,-8.3019,7.1811,255,255,255
19750,-4.322,-8.3211,7.3525,255,255,255
20000,-4.3884,-8.3404,7.5256,255,255,255
20250,-4.4555,-8.3599,7.7003,255,255,255
20500,-4.5232,-8.3796,7.8766,255,255,255
20750,-4.5915,-8.3995,8.0546,255,255,255
21000,-4.6604,-8.4195,8.2341,255,255,255
21250,-4.7299,-8.4397,8.4152,255,255,255
21500,-4.8,-8.4601,8.5978,255,255,255
21750,-4.8707,-8.4807,8.782,255,255,255
22000,-4.9419,-8.5014,8.9677,255,255,255
22250,-5.0138,-8.5223,9.155,255,255,255
22500,-5.0863,-8.5434,9.3437,255,255,255
22750,-5.1593,-8.5647,9.534,255,255,255
23000,-5.2328,-8.5861,9.7257,255,255,255
23250,-5.307,-8.6076,9.9189,255,255,255
23500,-5.3817,-8.6294,10.1135,255,255,255
23750,-5.4569,-8.6513,10.3095,255,255,255
24000,-5.5327,-8.6733,10.507,255,255,255
24250,-5.6091,-8.6955,10.7059,255,255,255
24500,-5.6859,-8.7179,10.9062,255,255,255
24750,-5.7634,-8.7404,11.1079,255,255,255
25000,-5.8413,-8.7631,11.3109,255,255,255
25250,-5.9197,-8.7859,11.5153,255,255,255
25500,-5.9987,-8.8089,11.721,255,255,255
25750,-6.0781,-8.832,11.928,255,255,255
26000,-6.1581,-8.8553,12.1364,255,255,255
26250,-6.2386,-8.8787,12.3461,255,255,255
26500,-6.3196,-8.9022,12.557,255,255,255
26750,-6.401,-8.9259,12.7692,255,255,255
27000,-6.4829,-8.9498,12.9827,255,255,255
27250,-6.5653,-8.9738,13.1974,255,255,255
27500,-6.6482,-8.9979,13.4133,255,255,255
27750,-6.7316,-9.0221,13.6305,255,255,255
28000,-6.8154,-9.0465,13.8488,255,255,255
28250,-6.8996,-9.071,14.0684,255,255,255
28500,-6.9844,-9.0957,14.2891,255,255,255
28750,-7.0695,-9.1204,14.511,255,255,255
29000,-7.1551,-9.1454,14.734,255,255,255
29250,-7.2411,-9.1704,14.9581,255,255,255
29500,-7.3276,-9.1955,15.1834,255,255,255
29750,-7.4145,-9.2208,15.4098,255,255,255
30000,-7.5018,-9.2462,15.6373,255,255,255
30250,-7.5895,-9.2717,15.8658,255,255,255
30500,-7.6776,-9.2974,16.0954,255,255,255
30750,-7.7662,-9.3231,16.3261,255,255,255
31000,-7.8551,-9.349,16.5578,255,255,255
31250,-7.9444,-9.375,16.7905,255,255,255
31500,-8.0341,-9.4011,17.0242,255,255,255
31750,-8.1242,-9.4273,17.2589,255,255,255
32000,-8.2147,-9.4536,17.4946,255,255,255
32250,-8.3055,-9.4801,17.7313,255,255,255
32500,-8.3967,-9.5066,17.9689,255,255,255
32750,-8.4883,-9.5332,18.2075,255,255,255
33000,-8.5802,-9.56,18.4469,255,255,255
33250,-8.6725,-9.5868,18.6873,255,255,255
33500,-8.7651,-9.6138,18.9286,255,255,255
33750,-8.858,-9.6408,19.1708,255,255,255
34000,-8.9513,-9.668,19.4138,255,255,255
34250,-9.0449,-9.6952,19.6578,255,255,255
34500,-9.1389,-9.7225,19.9025,255,255,255
34750,-9.2331,-9.7499,20.1481,255,255,255
35000,-9.3277,-9.7775,20.3945,255,255,255
35250,-9.4226,-9.8051,20.6417,255,255,255
35500,-9.5177,-9.8328,20.8896,255,255,255
35750,-9.6132,-9.8605,21.1384,255,255,255
36000,-9.709,-9.8884,21.3879,255,255,255
36250,-9.805,-9.9163,21.6382,255,255,255
36500,-9.9014,-9.9444,21.8892,255,255,255
36750,-9.998,-9.9725,22.1409,255,255,255
37000,-10.0949,-10.0007,22.3933,255,255,255
37250,-10.192,-10.0289,22.6464,255,255,255
37500,-10.2894,-10.0573,22.9002,255,255,255
37750,-10.3871,-10.0857,23.1546,255,255,255
38000,-10.485,-10.1142,23.4097,255,255,255
38250,-10.5831,-10.1427,23.6655,255,255,255
38500,-10.6815,-10.1714,23.9218,255,255,255
38750,-10.7802,-10.2001,24.1788,255,255,255
39000,-10.879,-10.2288,24.4364,255,255,255
39250,-10.9781,-10.2576,24.6945,255,255,255
39500,-11.0774,-10.2865,24.9532,255,255,255
39750,-11.1769,-10.3155,25.2125,255,255,255
40000,-11.2766,-10.3445,25.4723,255,255,255
40250,-11.3765,-10.3736,25.7326,255,255,255
40500,-11.4767,-10.4027,25.9935,255,255,255
40750,-11.577,-10.4319,26.2548,255,255,255
41000,-11.6774,-10.4611,26.5166,255,255,255
41250,-11.7781,-10.4904,26.7789,255,255,255
41500,-11.879,-10.5198,27.0417,255,255,255
41750,-11.98,-10.5491,27.3049,255,255,255
42000,-12.0812,-10.5786,27.5685,255,255,255
42250,-12.1825,-10.6081,27.8325,255,255,255
42500,-12.284,-10.6376,28.097,255,255,255
42750,-12.3857,-10.6672,28.3618,255,255,255
43000,-12.4874,-10.6968,28.627,255,255,255
43250,-12.5894,-10.7264,28.8926,255,255,255
43500,-12.6914,-10.7561,29.1585,255,255,255
43750,-12.7936,-10.7859,29.4247,255,255,255
44000,-12.8959,-10.8156,29.6913,255,255,255
44250,-12.9984,-10.8454,29.9582,255,255,255
44500,-13.1009,-10.8753,30.2253,255,255,255
44750,-13.2036,-10.9051,30.4928,255,255,255
45000,-13.3063,-10.935,30.7605,255,255,255
45250,-13.4091,-10.965,31.0284,255,255,255
45500,-13.5121,-10.9949,31.2966,255,255,255
45750,-13.6151,-11.0249,31.565,255,255,255
46000,-13.7182,-11.0549,31.8337,255,255,255
46250,-13.8214,-11.0849,32.1025,255,255,255
46500,-13.9246,-11.1149,32.3715,255,255,255
46750,-14.0279,-11.145,32.6407,255,255,255
47000,-14.1313,-11.1751,32.91,255,255,255
47250,-14.2347,-11.2052,33.1794,255,255,255
47500,-14.3382,-11.2353,33.449,255,255,255
47750,-14.4417,-11.2654,33.7187,255,255,255
48000,-14.5453,-11.2955,33.9885,255,255,255
48250,-14.6489,-11.3257,34.2584,255,255,255
48500,-14.7525,-11.3558,34.5284,255,255,255
48750,-14.8561,-11.386,34.7984,255,255,255
49000,-14.9598,-11.4161,35.0684,255,255,255
49250,-15.0634,-11.4463,35.3385,255,255,255
49500,-15.1671,-11.4764,35.6086,255,255,255
49750,-15.2708,-11.5066,35.8787,255,255,255
50000,-15.3744,-11.5368,36.1488,255,255,255
50250,-15.4781,-11.5669,36.4189,255,255,255
50500,-15.5817,-11.5971,36.6889,255,255,255
50750,-15.6853,-11.6272,36.9589,255,255,255
51000,-15.7889,-11.6574,37.2288,255,255,255
51250,-15.8925,-11.6875,37.4986,255,255,255
51500,-15.996,-11.7176,37.7684,255,255,255
51750,-16.0995,-11.7477,38.038,255,255,255
52000,-16.203,-11.7778,38.3075,255,255,255
52250,-16.3063,-11.8079,38.5769,255,255,255
52500,-16.4097,-11.838,38.8461,255,255,255
52750,-16.5129,-11.868,39.1151,255,255,255
53000,-16.6161,-11.898,39.384,255,255,255
53250,-16.7193,-11.928,39.6527,255,255,255
53500,-16.8223,-11.958,39.9212,255,255,255
53750,-16.9253,-11.988,40.1895,255,255,255
54000,-17.0282,-12.0179,40.4575,255,255,255
54250,-17.1309,-12.0478,40.7253,255,255,255
54500,-17.2336,-12.0777,40.9928,255,255,255
54750,-17.3362,-12.1075,41.2601,255,255,255
55000,-17.4387,-12.1373,41.5271,255,255,255
55250,-17.541,-12.1671,41.7937,255,255,255
55500,-17.6432,-12.1969,42.0601,255,255,255
55750,-17.7453,-12.2266,42.3261,255,255,255
56000,-17.8473,-12.2562,42.5918,255,255,255
56250,-17.9492,-12.2859,42.8571,255,255,255
56500,-18.0509,-12.3155,43.1221,255,255,255
56750,-18.1524,-12.345,43.3867,255,255,255
57000,-18.2538,-12.3745,43.6508,255,255,255
57250,-18.355,-12.404,43.9146,255,255,255
57500,-18.4561,-12.4334,44.1779,255,255,255
57750,-18.557,-12.4627,44.4408,255,255,255
58000,-18.6577,-12.492,44.7033,255,255,255
58250,-18.7583,-12.5213,44.9653,255,255,255
58500,-18.8587,-12.5505,45.2268,255,255,255
58750,-18.9588,-12.5796,45.4878,255,255,255
59000,-19.0588,-12.6087,45.7483,255,255,255
59250,-19.1586,-12.6378,46.0083,255,255,255
59500,-19.2582,-12.6667,46.2677,255,255,255
59750,-19.3576,-12.6957,46.5266,255,255,255
60000,-19.4567,-12.7245,46.785,255,255,255
60250,-19.5556,-12.7533,47.0427,255,255,255
60500,-19.6544,-12.782,47.2999,255,255,255
60750,-19.7528,-12.8107,47.5565,255,255,255
61000,-19.8511,-12.8392,47.8124,255,255,255
61250,-19.9491,-12.8677,48.0677,255,255,255
61500,-20.0468,-12.8962,48.3224,255,255,255
61750,-20.1443,-12.9246,48.5764,255,255,255
62000,-20.2415,-12.9528,48.8297,255,255,255
62250,-20.3385,-12.9811,49.0824,255,255,255
62500,-20.4352,-13.0092,49.3343,255,255,255
62750,-20.5316,-13.0372,49.5856,255,255,255
63000,-20.6278,-13.0652,49.8361,255,255,255
63250,-20.7236,-13.0931,50.0859,255,255,255
63500,-20.8192,-13.1209,50.3349,255,255,255
63750,-20.9145,-13.1486,50.5831,255,255,255
64000,-21.0095,-13.1763,50.8306,255,255,255
64250,-21.1041,-13.2038,51.0772,255,255,255
64500,-21.1985,-13.2313,51.3231,255,255,255
64750,-21.2926,-13.2586,51.5681,255,255,255
65000,-21.3863,-13.2859,51.8123,255,255,255
65250,-21.4797,-13.3131,52.0556,255,255,255
65500,-21.5727,-13.3402,52.2981,255,255,255
65750,-21.6655,-13.3671,52.5397,255,255,255
66000,-21.7578,-13.394,52.7804,255,255,255
66250,-21.8499,-13.4208,53.0202,255,255,255
66500,-21.9416,-13.4475,53.2591,255,255,255
66750,-22.0329,-13.474,53.497,255,255,255
67000,-22.1238,-13.5005,53.734,255,255,255
67250,-22.2144,-13.5269,53.97,255,255,255
67500,-22.3046,-13.5531,54.205,255,255,255
67750,-22.3945,-13.5792,54.4391,255,255,255
68000,-22.4839,-13.6053,54.6722,255,255,255
68250,-22.573,-13.6312,54.9042,255,255,255
68500,-22.6617,-13.657,55.1352,255,255,255
68750,-22.7499,-13.6827,55.3652,255,255,255
69000,-22.8378,-13.7082,55.5941,255,255,255
69250,-22.9252,-13.7337,55.8219,255,255,255
69500,-23.0122,-13.759,56.0486,255,255,255
69750,-23.0989,-13.7842,56.2743,255,255,255
70000,-23.185,-13.8093,56.4988,255,255,255
70250,-23.2708,-13.8342,56.7222,255,255,255
70500,-23.3561,-13.859,56.9445,255,255,255
70750,-23.4409,-13.8837,57.1656,255,255,255
71000,-23.5254,-13.9083,57.3855,255,255,255
71250,-23.6093,-13.9327,57.6043,255,255,255
71500,-23.6928,-13.957,57.8218,255,255,255
71750,-23.7759,-13.9812,58.0382,255,255,255
72000,-23.8584,-14.0052,58.2533,255,255,255
72250,-23.9405,-14.0291,58.4672,255,255,255
72500,-24.0221,-14.0528,58.6798,255,255,255
72750,-24.1033,-14.0764,58.8912,255,255,255
73000,-24.1839,-14.0999,59.1013,255,255,255
73250,-24.264,-14.1232,59.3101,255,255,255
73500,-24.3437,-14.1464,59.5176,255,255,255
73750,-24.4228,-14.1694,59.7237,255,255,255
74000,-24.5014,-14.1923,59.9286,255,255,255
74250,-24.5795,-14.215,60.1321,255,255,255
74500,-24.6571,-14.2376,60.3342,255,255,255
74750,-24.7342,-14.26,60.5349,255,255,255
75000,-24.8107,-14.2822,60.7343,255,255,255
75250,-24.8866,-14.3043,60.9323,255,255,255
75500,-24.9621,-14.3263,61.1288,255,255,255
75750,-25.037,-14.3481,61.3239,255,255,255
76000,-25.1113,-14.3697,61.5176,255,255,255
76250,-25.1851,-14.3912,61.7098,255,255,255
76500,-25.2583,-14.4125,61.9005,255,255,255
76750,-25.3309,-14.4336,62.0898,255,255,255
77000,-25.403,-14.4546,62.2775,255,255,255
77250,-25.4745,-14.4754,62.4638,255,255,255
77500,-25.5453,-14.496,62.6485,255,255,255
77750,-25.6157,-14.5164,62.8316,255,255,255
78000,-25.6854,-14.5367,63.0132,255,255,255
78250,-25.7545,-14.5568,63.1933,255,255,255
78500,-25.823,-14.5768,63.3717,255,255,255
78750,-25.8908,-14.5965,63.5486,255,255,255
79000,-25.9581,-14.6161,63.7239,255,255,255
79250,-26.0247,-14.6355,63.8975,255,255,255
79500,-26.0908,-14.6547,64.0695,255,255,255
79750,-26.1561,-14.6737,64.2398,255,255,255
80000,-26.2209,-14.6925,64.4085,255,255,255
80250,-26.285,-14.7112,64.5755,255,255,255
80500,-26.3484,-14.7296,64.7408,255,255,255
80750,-26.4112,-14.7479,64.9044,255,255,255
81000,-26.4733,-14.766,65.0663,255,255,255
81250,-26.5348,-14.7839,65.2264,255,255,255
81500,-26.5956,-14.8016,65.3848,255,255,255
81750,-26.6557,-14.8191,65.5415,255,255,255
82000,-26.7152,-14.8363,65.6963,255,255,255
82250,-26.7739,-14.8534,65.8494,255,255,255
82500,-26.832,-14.8703,66.0007,255,255,255
82750,-26.8893,-14.887,66.1501,255,255,255
83000,-26.946,-14.9035,66.2978,255,255,255
83250,-27.002,-14.9198,66.4435,255,255,255
83500,-27.0572,-14.9359,66.5875,255,255,255
83750,-27.1117,-14.9517,66.7295,255,255,255
84000,-27.1655,-14.9674,66.8697,255,255,255
84250,-27.2186,-14.9828,67.0079,255,255,255
84500,-27.2709,-14.998,67.1443,255,255,255
84750,-27.3225,-15.013,67.2787,255,255,255
85000,-27.3734,-15.0278,67.4112,255,255,255
85250,-27.4235,-15.0424,67.5417,255,255,255
85500,-27.4728,-15.0568,67.6703,255,255,255
85750,-27.5214,-15.0709,67.7969,255,255,255
86000,-27.5692,-15.0848,67.9215,255,255,255
86250,-27.6162,-15.0985,68.044,255,255,255
86500,-27.6625,-15.112,68.1646,255,255,255
86750,-27.708,-15.1252,68.2831,255,255,255
87000,-27.7527,-15.1382,68.3996,255,255,255
87250,-27.7966,-15.151,68.514,255,255,255
87500,-27.8397,-15.1635,68.6263,255,255,255
87750,-27.882,-15.1758,68.7365,255,255,255
88000,-27.9235,-15.1879,68.8446,255,255,255
88250,-27.9642,-15.1998,68.9506,255,255,255
88500,-28.0041,-15.2114,69.0545,255,255,255
88750,-28.0431,-15.2227,69.1562,255,255,255
89000,-28.0813,-15.2338,69.2558,255,255,255
89250,-28.1187,-15.2447,69.3532,255,255,255
89500,-28.1553,-15.2553,69.4484,255,255,255
89750,-28.1909,-15.2657,69.5414,255,255,255
90000,-28.2258,-15.2759,69.6322,255,255,255
90250,-28.2598,-15.2857,69.7207,255,255,255
90500,-28.2929,-15.2954,69.807,255,255,255
90750,-28.3252,-15.3048,69.8911,255,255,255
91000,-28.3565,-15.3139,69.9728,255,255,255
91250,-28.3871,-15.3228,70.0523,255,255,255
91500,-28.4167,-15.3314,70.1295,255,255,255
91750,-28.4454,-15.3398,70.2044,255,255,255
92000,-28.4733,-15.3479,70.2769,255,255,255
92250,-28.5002,-15.3557,70.3472,255,255,255
92500,-28.5263,-15.3633,70.415,255,255,255
92750,-28.5514,-15.3706,70.4805,255,255,255
93000,-28.5756,-15.3776,70.5436,255,255,255
93250,-28.5989,-15.3844,70.6043,255,255,255
93500,-28.6213,-15.3909,70.6626,255,255,255
93750,-28.6427,-15.3972,70.7185,255,255,255
94000,-28.6633,-15.4031,70.772,255,255,255
94250,-28.6828,-15.4088,70.823,255,255,255
94500,-28.7015,-15.4143,70.8715,255,255,255
94750,-28.7191,-15.4194,70.9175,255,255,255
95000,-28.7359,-15.4243,70.9611,255,255,255
95250,-28.7516,-15.4288,71.0022,255,255,255
95500,-28.7664,-15.4332,71.0407,255,255,255
95750,-28.7802,-15.4372,71.0767,255,255,255
96000,-28.7931,-15.4409,71.1102,255,255,255
96250,-28.8049,-15.4444,71.1411,255,255,255
96500,-28.8158,-15.4475,71.1694,255,255,255
96750,-28.8257,-15.4504,71.1951,255,255,255
97000,-28.8345,-15.453,71.2182,255,255,255
97250,-28.8424,-15.4553,71.2388,255,255,255
97500,-28.8493,-15.4573,71.2566,255,255,255
97750,-28.8551,-15.459,71.2719,255,255,255
98000,-28.86,-15.4604,71.2845,255,255,255
98250,-28.8638,-15.4615,71.2944,255,255,255
98500,-28.8665,-15.4623,71.3016,255,255,255
98750,-28.8683,-15.4628,71.3061,255,255,255
99000,-28.869,-15.463,71.308,255,255,255
99250,-28.869,-15.463,71.308,255,255,255
99500,-28.869,-15.463,71.308,255,255,255
99750,-28.869,-15.463,71.308,255,255,255
100000,-28.869,-15.463,71.308,255,255,255
100250,-28.869,-15.463,71.308,255,255,255
100500,-28.869,-15.463,71.308,255,255,255
100750,-28.869,-15.463,71.308,255,255,255
101000,-28.869,-15.463,71.308,255,255,255
101250,-28.869,-15.463,71.308,255,255,255
101500,-28.869,-15.463,71.308,255,255,255
101750,-28.869,-15.463,71.308,255,255,255
102000,-28.869,-15.463,71.308,255,255,255
102250,-28.869,-15.463,71.308,255,255,255
102500,-28.869,-15.463,71.308,255,255,255
102750,-28.869,-15.463,71.308,255,255,255
103000,-28.869,-15.463,71.308,255,255,255
103250,-28.869,-15.463,71.308,255,255,255
103500,-28.869,-15.463,71.308,255,255,255
103750,-28.869,-15.463,71.308,255,255,255
104000,-28.869,-15.463,71.308,255,255,255
104250,-28.869,-15.463,71.308,255,255,255
104500,-28.869,-15.463,71.308,255,255,255
104750,-28.869,-15.463,71.308,255,255,255
105000,-28.869,-15.463,71.308,255,255,255
105250,-28.869,-15.463,71.308,255,255,255
105500,-28.869,-15.463,71.308,255,255,255
105750,-28.869,-15.463,71.308,255,255,255
106000,-28.869,-15.463,71.308,255,255,255
106250,-28.869,-15.463,71.308,255,255,255
106500,-28.869,-15.463,71.308,255,255,255
106750,-28.869,-15.463,71.308,255,255,255
107000,-28.869,-15.463,71.308,255,255,255
107250,-28.869,-15.463,71.308,255,255,255
107500,-28.869,-15.463,71.308,255,255,255
107750,-28.869,-15.463,71.308,255,255,255
108000,-28.869,-15.463,71.308,255,255,255
108250,-28.869,-15.463,71.308,255,255,255
108500,-28.869,-15.463,71.308,255,255,255
108750,-28.869,-15.463,71.308,255,255,255
109000,-28.869,-15.463,71.308,255,255,255
109250,-28.869,-15.463,71.308,255,255,255
109500,-28.869,-15.463,71.308,255,255,255
109750,-28.869,-15.463,71.308,255,255,255
110000,-28.869,-15.463,71.308,255,255,255
110250,-28.869,-15.463,71.308,255,255,255
110500,-28.869,-15.463,71.308,255,255,255
110750,-28.869,-15.463,71.308,255,255,255
111000,-28.869,-15.463,71.308,255,255,255
111250,-28.869,-15.463,71.308,255,255,255
111500,-28.869,-15.463,71.308,255,255,255
111750,-28.869,-15.463,71.308,255,255,255
112000,-28.869,-15.463,71.308,255,255,255
112250,-28.869,-15.463,71.308,255,255,255
112500,-28.869,-15.463,71.308,255,255,255
112750,-28.869,-15.463,71.308,255,255,255
113000,-28.869,-15.463,71.308,255,255,255
113250,-28.869,-15.463,71.308,255,255,255
113500,-28.869,-15.463,71.308,255,255,255
113750,-28.869,-15.463,71.308,255,255,255
114000,-28.869,-15.463,71.308,255,255,255
114250,-28.869,-15.463,71.308,255,255,255
114500,-28.869,-15.463,71.308,255,255,255
