Time [msec],x [m],y [m],z [m],Red,Green,Blue
0,4.5,13.5,0,255,255,255
250,4.497,13.494,0.0193,255,255,255
500,4.4857,13.4715,0.0917,255,255,255
750,4.4664,13.4333,0.2148,255,255,255
1000,4.4397,13.3803,0.3855,255,255,255
1250,4.406,13.3135,0.6005,255,255,255
1500,4.3659,13.2339,0.8566,255,255,255
1750,4.3199,13.1425,1.1507,255,255,255
2000,4.2684,13.0402,1.4796,255,255,255
2250,4.2119,12.9282,1.8401,255,255,255
2500,4.151,12.8073,2.2289,255,255,255
2750,4.0862,12.6785,2.6429,255,255,255
3000,4.0179,12.5428,3.0789,255,255,255
3250,3.9466,12.4013,3.5338,255,255,255
3500,3.8728,12.2548,4.0042,255,255,255
3750,3.7971,12.1045,4.4871,255,255,255
4000,3.72,11.9512,4.9792,255,255,255
4250,3.6418,11.796,5.4773,255,255,255
4500,3.5632,11.6398,5.9783,255,255,255
4750,3.4846,11.4837,6.4789,255,255,255
5000,3.4066,11.3286,6.976,255,255,255
5250,3.3295,11.1755,7.4664,255,255,255
5500,3.254,11.0254,7.9468,255,255,255
5750,3.1805,10.8792,8.4141,255,255,255
6000,3.1096,10.7381,8.8652,255,255,255
6250,3.0416,10.6029,9.2967,255,255,255
6500,2.9772,10.4747,9.7055,255,255,255
6750,2.9167,10.3544,10.0884,255,255,255
7000,2.8596,10.2406,10.4507,255,255,255
7250,2.8037,10.1296,10.8065,255,255,255
7500,2.749,10.0212,11.1561,255,255,255
7750,2.6955,9.9154,11.4993,255,255,255
8000,2.6433,9.8124,11.8361,255,255,255
8250,2.5924,9.7121,12.1663,255,255,255
8500,2.5428,9.6146,12.4899,255,255,255
8750,2.4944,9.5198,12.8068,255,255,255
9000,2.4474,9.428,13.1169,255,255,255
9250,2.4018,9.339,13.4202,255,255,255
9500,2.3575,9.2529,13.7164,255,255,255
9750,2.3146,9.1697,14.0056,255,255,255
10000,2.2731,9.0895,14.2876,255,255,255
10250,2.233,9.0124,14.5623,255,255,255
10500,2.1944,8.9383,14.8297,255,255,255
10750,2.1572,8.8673,15.0897,255,255,255
11000,2.1215,8.7993,15.3422,255,255,255
11250,2.0872,8.7346,15.587,255,255,255
11500,2.0545,8.673,15.8241,255,255,255
11750,2.0234,8.6147,16.0534,255,255,255
12000,1.9937,8.5596,16.2749,255,255,255
12250,1.9657,8.5078,16.4883,255,255,255
12500,1.9392,8.4593,16.6937,255,255,255
12750,1.9143,8.4141,16.8909,255,255,255
13000,1.8911,8.3724,17.0799,255,255,255
13250,1.8695,8.3341,17.2605,255,255,255
13500,1.8495,8.2992,17.4328,255,255,255
13750,1.831,8.2677,17.5969,255,255,255
14000,1.8141,8.2395,17.7533,255,255,255
14250,1.7985,8.2144,17.902,255,255,255
14500,1.7844,8.1924,18.0433,255,255,255
14750,1.7716,8.1734,18.1775,255,255,255
15000,1.7602,8.1572,18.3047,255,255,255
15250,1.7499,8.1438,18.4253,255,255,255
15500,1.7409,8.1331,18.5394,255,255,255
15750,1.7331,8.1249,18.6473,255,255,255
16000,1.7264,8.1192,18.7491,255,255,255
16250,1.7207,8.1158,18.8452,255,255,255
16500,1.7161,8.1147,18.9358,255,255,255
16750,1.7125,8.1157,19.0211,255,255,255
17000,1.7098,8.1188,19.1013,255,255,255
17250,1.708,8.1239,19.1767,255,255,255
17500,1.7071,8.1308,19.2475,255,255,255
17750,1.7069,8.1394,19.3139,255,255,255
18000,1.7075,8.1498,19.3762,255,255,255
18250,1.7088,8.1616,19.4345,255,255,255
18500,1.7108,8.1749,19.4892,255,255,255
18750,1.7134,8.1896,19.5405,255,255,255
19000,1.7166,8.2055,19.5885,255,255,255
19250,1.7203,8.2226,19.6336,255,255,255
19500,1.7245,8.2407,19.6759,255,255,255
19750,1.7291,8.2597,19.7157,255,255,255
20000,1.7342,8.2796,19.7533,255,255,255
20250,1.7395,8.3003,19.7888,255,255,255
20500,1.7452,8.3216,19.8224,255,255,255
20750,1.7511,8.3434,19.8545,255,255,255
21000,1.7572,8.3657,19.8853,255,255,255
21250,1.7635,8.3883,19.9149,255,255,255
21500,1.7699,8.4111,19.9436,255,255,255
21750,1.7764,8.4341,19.9717,255,255,255
22000,1.7829,8.4571,19.9994,255,255,255
22250,1.7894,8.4798,20.0259,255,255,255
22500,1.7959,8.5014,20.0499,255,255,255
22750,1.8024,8.5221,20.0713,255,255,255
23000,1.8089,8.5418,20.0902,255,255,255
23250,1.8154,8.5606,20.1068,255,255,255
23500,1.8219,8.5786,20.1212,255,255,255
23750,1.8283,8.5957,20.1334,255,255,255
24000,1.8348,8.6121,20.1436,255,255,255
24250,1.8413,8.6277,20.1518,255,255,255
24500,1.8478,8.6426,20.1582,255,255,255
24750,1.8542,8.6568,20.1628,255,255,255
25000,1.8607,8.6704,20.1658,255,255,255
25250,1.8672,8.6835,20.1672,255,255,255
25500,1.8737,8.6959,20.1672,255,255,255
25750,1.8801,8.7079,20.1659,255,255,255
26000,1.8866,8.7193,20.1633,255,255,255
26250,1.8931,8.7304,20.1596,255,255,255
26500,1.8995,8.741,20.1548,255,255,255
26750,1.906,8.7513,20.1491,255,255,255
27000,1.9124,8.7612,20.1426,255,255,255
27250,1.9189,8.7709,20.1353,255,255,255
27500,1.9254,8.7803,20.1274,255,255,255
27750,1.9318,8.7895,20.1189,255,255,255
28000,1.9383,8.7986,20.1101,255,255,255
28250,1.9448,8.8075,20.1008,255,255,255
28500,1.9512,8.8163,20.0914,255,255,255
28750,1.9577,8.8251,20.0818,255,255,255
29000,1.9642,8.8339,20.0722,255,255,255
29250,1.9706,8.8427,20.0627,255,255,255
29500,1.9771,8.8515,20.0533,255,255,255
29750,1.9836,8.8605,20.0442,255,255,255
30000,1.9901,8.8696,20.0355,255,255,255
30250,1.9965,8.8789,20.0272,255,255,255
30500,2.003,8.8884,20.0195,255,255,255
30750,2.0095,8.8981,20.0125,255,255,255
31000,2.016,8.9082,20.0063,255,255,255
31250,2.0224,8.9186,20.0009,255,255,255
31500,2.0289,8.9293,19.9965,255,255,255
31750,2.0354,8.9405,19.9932,255,255,255
32000,2.0419,8.9521,19.9911,255,255,255
32250,2.0484,8.9642,19.9902,255,255,255
32500,2.0549,8.9768,19.9908,255,255,255
32750,2.0614,8.9901,19.9934,255,255,255
33000,2.0679,9.004,19.9992,255,255,255
33250,2.0744,9.0186,20.0082,255,255,255
33500,2.0808,9.0339,20.0203,255,255,255
33750,2.0873,9.0498,20.0352,255,255,255
34000,2.0938,9.0664,20.0529,255,255,255
34250,2.1002,9.0835,20.0733,255,255,255
34500,2.1067,9.1012,20.0963,255,255,255
34750,2.1131,9.1195,20.1218,255,255,255
35000,2.1196,9.1382,20.1496,255,255,255
35250,2.126,9.1575,20.1796,255,255,255
35500,2.1324,9.1773,20.2118,255,255,255
35750,2.1388,9.1976,20.246,255,255,255
36000,2.1453,9.2183,20.282,255,255,255
36250,2.1517,9.2394,20.3199,255,255,255
36500,2.1581,9.2609,20.3594,255,255,255
36750,2.1645,9.2828,20.4005,255,255,255
37000,2.1709,9.3051,20.4431,255,255,255
37250,2.1773,9.3277,20.4869,255,255,255
37500,2.1837,9.3506,20.532,255,255,255
37750,2.1901,9.3739,20.5782,255,255,255
38000,2.1965,9.3974,20.6254,255,255,255
38250,2.2029,9.4211,20.6735,255,255,255
38500,2.2093,9.4451,20.7223,255,255,255
38750,2.2157,9.4693,20.7718,255,255,255
39000,2.2221,9.4937,20.8218,255,255,255
39250,2.2285,9.5182,20.8723,255,255,255
39500,2.2349,9.5429,20.9231,255,255,255
39750,2.2413,9.5677,20.9741,255,255,255
40000,2.2478,9.5927,21.0252,255,255,255
40250,2.2542,9.6177,21.0763,255,255,255
40500,2.2606,9.6427,21.1272,255,255,255
40750,2.267,9.6678,21.1779,255,255,255
41000,2.2734,9.693,21.2282,255,255,255
41250,2.2799,9.7181,21.278,255,255,255
41500,2.2863,9.7432,21.3273,255,255,255
41750,2.2927,9.7682,21.3759,255,255,255
42000,2.2992,9.7932,21.4236,255,255,255
42250,2.3056,9.8181,21.4705,255,255,255
42500,2.3121,9.8429,21.5163,255,255,255
42750,2.3185,9.8675,21.5609,255,255,255
43000,2.325,9.892,21.6043,255,255,255
43250,2.3314,9.9163,21.6463,255,255,255
43500,2.3379,9.9405,21.6868,255,255,255
43750,2.3444,9.9644,21.7257,255,255,255
44000,2.3509,9.988,21.7629,255,255,255
44250,2.3576,10.0121,21.7979,255,255,255
44500,2.3646,10.0376,21.8299,255,255,255
44750,2.3719,10.0643,21.859,255,255,255
45000,2.3796,10.0922,21.8854,255,255,255
45250,2.3875,10.121,21.9091,255,255,255
45500,2.3956,10.1505,21.9304,255,255,255
45750,2.4039,10.1807,21.9494,255,255,255
46000,2.4122,10.2112,21.9661,255,255,255
46250,2.4206,10.242,21.9807,255,255,255
46500,2.4291,10.2729,21.9934,255,255,255
46750,2.4374,10.3036,22.0042,255,255,255
47000,2.4457,10.3341,22.0134,255,255,255
47250,2.4539,10.364,22.021,255,255,255
47500,2.4619,10.3934,22.0271,255,255,255
47750,2.4697,10.4219,22.0319,255,255,255
48000,2.4772,10.4495,22.0356,255,255,255
48250,2.4844,10.4759,22.0382,255,255,255
48500,2.4912,10.501,22.0399,255,255,255
48750,2.4976,10.5245,22.0408,255,255,255
49000,2.5036,10.5464,22.0411,255,255,255
49250,2.509,10.5664,22.0408,255,255,255
49500,2.5139,10.5844,22.0401,255,255,255
49750,2.5182,10.6002,22.0392,255,255,255
50000,2.5218,10.6136,22.0381,255,255,255
50250,2.5248,10.6245,22.037,255,255,255
50500,2.527,10.6326,22.036,255,255,255
50750,2.5284,10.6378,22.0353,255,255,255
51000,2.529,10.64,22.035,255,255,255
51250,2.529,10.64,22.035,255,255,255
51500,2.529,10.64,22.035,255,255,255
51750,2.529,10.64,22.035,255,255,255
52000,2.529,10.64,22.035,255,255,255
52250,2.529,10.64,22.035,255,255,255
52500,2.529,10.64,22.035,255,255,255
52750,2.529,10.64,22.035,255,255,255
53000,2.529,10.64,22.035,255,255,255
53250,2.529,10.64,22.035,255,255,255
53500,2.529,10.64,22.035,255,255,255
53750,2.529,10.64,22.035,255,255,255
54000,2.529,10.64,22.035,255,255,255
54250,2.5242,10.633,21.9703,255,255,255
54500,2.5131,10.6168,21.7623,255,255,255
54750,2.5085,10.6101,21.4816,255,255,255
55000,2.5236,10.6321,21.2017,255,255,255
55250,2.5581,10.6824,20.9591,255,255,255
55500,2.5931,10.7334,20.7176,255,255,255
55750,2.639,10.8002,20.4342,255,255,255
56000,2.7112,10.9052,20.0489,255,255,255
56250,2.8021,11.0371,19.5915,255,255,255
56500,2.9035,11.1842,19.0932,255,255,255
56750,3.0071,11.3344,18.5856,255,255,255
57000,3.1048,11.4759,18.1002,255,255,255
57250,3.1945,11.6057,17.6449,255,255,255
57500,3.284,11.7352,17.1904,255,255,255
57750,3.3735,11.8647,16.7359,255,255,255
58000,3.463,11.9942,16.2814,255,255,255
58250,3.5525,12.1237,15.8269,255,255,255
58500,3.642,12.2532,15.3724,255,255,255
58750,3.7315,12.3827,14.9179,255,255,255
59000,3.821,12.5122,14.4634,255,255,255
59250,3.9105,12.6417,14.0089,255,255,255
59500,3.9988,12.7727,13.5502,255,255,255
59750,4.0917,12.9074,13.0777,255,255,255
60000,4.1842,13.0415,12.6077,255,255,255
60250,4.2734,13.171,12.1542,255,255,255
60500,4.3568,13.2918,11.7311,255,255,255
60750,4.4247,13.3903,11.369,255,255,255
61000,4.4669,13.4516,11.0871,255,255,255
61250,4.4894,13.4844,10.8552,255,255,255
61500,4.4983,13.4975,10.642,255,255,255
61750,4.5,13.5,10.4163,255,255,255
62000,4.5,13.5,10.1841,255,255,255
62250,4.5,13.5,9.9938,255,255,255
62500,4.5,13.5,9.8367,255,255,255
62750,4.5,13.5,9.7021,255,255,255
63000,4.5,13.5,9.5796,255,255,255
63250,4.5,13.5,9.4589,255,255,255
63500,4.5,13.5,9.334,255,255,255
63750,4.5,13.5,9.209,255,255,255
64000,4.5,13.5,9.084,255,255,255
64250,4.5,13.5,8.959,255,255,255
64500,4.5,13.5,8.834,255,255,255
64750,4.5,13.5,8.709,255,255,255
65000,4.5,13.5,8.584,255,255,255
65250,4.5,13.5,8.459,255,255,255
65500,4.5,13.5,8.334,255,255,255
65750,4.5,13.5,8.208,255,255,255
66000,4.5,13.5,8.083,255,255,255
66250,4.5,13.5,7.958,255,255,255
66500,4.5,13.5,7.833,255,255,255
66750,4.5,13.5,7.708,255,255,255
67000,4.5,13.5,7.583,255,255,255
67250,4.5,13.5,7.458,255,255,255
67500,4.5,13.5,7.333,255,255,255
67750,4.5,13.5,7.208,255,255,255
68000,4.5,13.5,7.083,255,255,255
68250,4.5,13.5,6.958,255,255,255
68500,4.5,13.5,6.833,255,255,255
68750,4.5,13.5,6.708,255,255,255
69000,4.5,13.5,6.583,255,255,255
69250,4.5,13.5,6.458,255,255,255
69500,4.5,13.5,6.333,255,255,255
69750,4.5,13.5,6.208,255,255,255
70000,4.5,13.5,6.083,255,255,255
70250,4.5,13.5,5.958,255,255,255
70500,4.5,13.5,5.833,255,255,255
70750,4.5,13.5,5.708,255,255,255
71000,4.5,13.5,5.583,255,255,255
71250,4.5,13.5,5.458,255,255,255
71500,4.5,13.5,5.333,255,255,255
71750,4.5,13.5,5.208,255,255,255
72000,4.5,13.5,5.083,255,255,255
72250,4.5,13.5,4.958,255,255,255
72500,4.5,13.5,4.834,255,255,255
72750,4.5,13.5,4.709,255,255,255
73000,4.5,13.5,4.584,255,255,255
73250,4.5,13.5,4.459,255,255,255
73500,4.5,13.5,4.334,255,255,255
73750,4.5,13.5,4.209,255,255,255
74000,4.5,13.5,4.084,255,255,255
74250,4.5,13.5,3.959,255,255,255
74500,4.5,13.5,3.834,255,255,255
74750,4.5,13.5,3.709,255,255,255
75000,4.5,13.5,3.584,255,255,255
75250,4.5,13.5,3.459,255,255,255
75500,4.5,13.5,3.334,255,255,255
75750,4.5,13.5,3.209,255,255,255
76000,4.5,13.5,3.084,255,255,255
76250,4.5,13.5,2.959,255,255,255
76500,4.5,13.5,2.834,255,255,255
76750,4.5,13.5,2.709,255,255,255
77000,4.5,13.5,2.584,255,255,255
77250,4.5,13.5,2.459,255,255,255
77500,4.5,13.5,2.334,255,255,255
77750,4.5,13.5,2.209,255,255,255
78000,4.5,13.5,2.084,255,255,255
78250,4.5,13.5,1.959,255,255,255
78500,4.5,13.5,1.834,255,255,255
78750,4.5,13.5,1.709,255,255,255
79000,4.5,13.5,1.584,255,255,255
79250,4.5,13.5,1.459,255,255,255
79500,4.5,13.5,1.334,255,255,255
79750,4.5,13.5,1.209,255,255,255
80000,4.5,13.5,1.084,255,255,255
80250,4.5,13.5,0.959,255,255,255
80500,4.5,13.5,0.834,255,255,255
80750,4.5,13.5,0.709,255,255,255
81000,4.5,13.5,0.584,255,255,255
81250,4.5,13.5,0.4482,255,255,255
81500,4.5,13.5,0.299,255,255,255
81750,4.5,13.5,0.1588,255,255,255
82000,4.5,13.5,0.0515,255,255,255
82250,4.5,13.5,0.0012,255,255,255
82500,4.5,13.5,0,255,255,255
82750,4.5,13.5,0,255,255,255
83000,4.5,13.5,0,255,255,255
83250,4.5,13.5,0,255,255,255
83500,4.5,13.5,0,255,255,255
83750,4.5,13.5,0,255,255,255
84000,4.5,13.5,0,255,255,255
84250,4.5,13.5,0,255,255,255
84500,4.5,13.5,0,255,255,255
84750,4.5,13.5,0,255,255,255
85000,4.5,13.5,0,255,255,255
85250,4.5,13.5,0,255,255,255
85500,4.5,13.5,0,255,255,255
85750,4.5,13.5,0,255,255,255
86000,4.5,13.5,0,255,255,255
86250,4.5,13.5,0,255,255,255
86500,4.5,13.5,0,255,255,255
86750,4.5,13.5,0,255,255,255
87000,4.5,13.5,0,255,255,255
87250,4.5,13.5,0,255,255,255
87500,4.5,13.5,0,255,255,255
87750,4.5,13.5,0,255,255,255
88000,4.5,13.5,0,255,255,255
88250,4.5,13.5,0,255,255,255
88500,4.5,13.5,0,255,255,255
88750,4.5,13.5,0,255,255,255
89000,4.5,13.5,0,255,255,255
89250,4.5,13.5,0,255,255,255
89500,4.5,13.5,0,255,255,255
89750,4.5,13.5,0,255,255,255
90000,4.5,13.5,0,255,255,255
90250,4.5,13.5,0,255,255,255
90500,4.5,13.5,0,255,255,255
90750,4.5,13.5,0,255,255,255
91000,4.5,13.5,0,255,255,255
91250,4.5,13.5,0,255,255,255
91500,4.5,13.5,0,255,255,255
91750,4.5,13.5,0,255,255,255
92000,4.5,13.5,0,255,255,255
92250,4.5,13.5,0,255,255,255
92500,4.5,13.5,0,255,255,255
92750,4.5,13.5,0,255,255,255
93000,4.5,13.5,0,255,255,255
93250,4.5,13.5,0,255,255,255
93500,4.5,13.5,0,255,255,255
93750,4.5,13.5,0,255,255,255
94000,4.5,13.5,0,255,255,255
94250,4.5,13.5,0,255,255,255
94500,4.5,13.5,0,255,255,255
94750,4.5,13.5,0,255,255,255
95000,4.5,13.5,0,255,255,255
95250,4.5,13.5,0,255,255,255
95500,4.5,13.5,0,255,255,255
95750,4.5,13.5,0,255,255,255
96000,4.5,13.5,0,255,255,255
96250,4.5,13.5,0,255,255,255
96500,4.5,13.5,0,255,255,255
96750,4.5,13.5,0,255,255,255
97000,4.5,13.5,0,255,255,255
97250,4.5,13.5,0,255,255,255
97500,4.5,13.5,0,255,255,255
97750,4.5,13.5,0,255,255,255
98000,4.5,13.5,0,255,255,255
98250,4.5,13.5,0,255,255,255
98500,4.5,13.5,0,255,255,255
98750,4.5,13.5,0,255,255,255
99000,4.5,13.5,0,255,255,255
99250,4.5,13.5,0,255,255,255
99500,4.5,13.5,0,255,255,255
99750,4.5,13.5,0,255,255,255
100000,4.5,13.5,0,255,255,255
100250,4.5,13.5,0,255,255,255
100500,4.5,13.5,0,255,255,255
100750,4.5,13.5,0,255,255,255
101000,4.5,13.5,0,255,255,255
101250,4.5,13.5,0,255,255,255
101500,4.5,13.5,0,255,255,255
101750,4.5,13.5,0,255,255,255
102000,4.5,13.5,0,255,255,255
102250,4.5,13.5,0,255,255,255
102500,4.5,13.5,0,255,255,255
102750,4.5,13.5,0,255,255,255
103000,4.5,13.5,0,255,255,255
103250,4.5,13.5,0,255,255,255
103500,4.5,13.5,0,255,255,255
103750,4.5,13.5,0,255,255,255
104000,4.5,13.5,0,255,255,255
