Time [msec],x [m],y [m],z [m],Red,Green,Blue
0,1.5,-10.5,0,255,255,255
250,1.4978,-10.4934,0.0179,255,255,255
500,1.4897,-10.4688,0.085,255,255,255
750,1.4759,-10.4268,0.1991,255,255,255
1000,1.4567,-10.3686,0.3574,255,255,255
1250,1.4326,-10.2953,0.5568,255,255,255
1500,1.4038,-10.2079,0.7944,255,255,255
1750,1.3708,-10.1076,1.0672,255,255,255
2000,1.3338,-9.9955,1.3723,255,255,255
2250,1.2933,-9.8725,1.7068,255,255,255
2500,1.2496,-9.7399,2.0677,255,255,255
2750,1.203,-9.5986,2.4521,255,255,255
3000,1.1539,-9.4498,2.857,255,255,255
3250,1.1028,-9.2946,3.2794,255,255,255
3500,1.0498,-9.134,3.7165,255,255,255
3750,0.9954,-8.9692,4.1652,255,255,255
4000,0.94,-8.8012,4.6227,255,255,255
4250,0.8838,-8.631,5.0859,255,255,255
4500,0.8274,-8.4599,5.5519,255,255,255
4750,0.7709,-8.2888,6.0179,255,255,255
5000,0.7147,-8.1189,6.4807,255,255,255
5250,0.6593,-7.9512,6.9376,255,255,255
5500,0.605,-7.7869,7.3855,255,255,255
5750,0.5521,-7.627,7.8214,255,255,255
6000,0.501,-7.4726,8.2425,255,255,255
6250,0.4521,-7.3247,8.6458,255,255,255
6500,0.4056,-7.1845,9.0284,255,255,255
6750,0.362,-7.0531,9.3872,255,255,255
7000,0.3207,-6.9289,9.7268,255,255,255
7250,0.2802,-6.8072,10.0591,255,255,255
7500,0.2405,-6.688,10.3844,255,255,255
7750,0.2016,-6.5715,10.7027,255,255,255
8000,0.1634,-6.4575,11.0138,255,255,255
8250,0.1261,-6.3462,11.3176,255,255,255
8500,0.0896,-6.2376,11.614,255,255,255
8750,0.0539,-6.1317,11.903,255,255,255
9000,0.019,-6.0285,12.1845,255,255,255
9250,-0.015,-5.9281,12.4583,255,255,255
9500,-0.0481,-5.8306,12.7244,255,255,255
9750,-0.0804,-5.7359,12.9826,255,255,255
10000,-0.1117,-5.6442,13.233,255,255,255
10250,-0.1422,-5.5553,13.4753,255,255,255
10500,-0.1718,-5.4695,13.7095,255,255,255
10750,-0.2004,-5.3866,13.9355,255,255,255
11000,-0.2281,-5.3068,14.1533,255,255,255
11250,-0.2549,-5.2301,14.3626,255,255,255
11500,-0.2807,-5.1565,14.5635,255,255,255
11750,-0.3055,-5.0861,14.7558,255,255,255
12000,-0.3293,-5.0189,14.9394,255,255,255
12250,-0.3522,-4.9549,15.1143,255,255,255
12500,-0.374,-4.8941,15.2803,255,255,255
12750,-0.3949,-4.8367,15.4374,255,255,255
13000,-0.4147,-4.7826,15.5855,255,255,255
13250,-0.4334,-4.7319,15.7244,255,255,255
13500,-0.4511,-4.6846,15.8541,255,255,255
13750,-0.4678,-4.6406,15.9748,255,255,255
14000,-0.4835,-4.5995,16.0869,255,255,255
14250,-0.4982,-4.5613,16.1908,255,255,255
14500,-0.512,-4.5258,16.2867,255,255,255
14750,-0.5249,-4.4931,16.3748,255,255,255
15000,-0.537,-4.463,16.4554,255,255,255
15250,-0.5482,-4.4354,16.5288,255,255,255
15500,-0.5586,-4.4102,16.5953,255,255,255
15750,-0.5682,-4.3875,16.6549,255,255,255
16000,-0.5771,-4.367,16.7081,255,255,255
16250,-0.5853,-4.3488,16.7551,255,255,255
16500,-0.5928,-4.3327,16.796,255,255,255
16750,-0.5997,-4.3187,16.8313,255,255,255
17000,-0.6059,-4.3067,16.861,255,255,255
17250,-0.6115,-4.2966,16.8856,255,255,255
17500,-0.6166,-4.2883,16.9051,255,255,255
17750,-0.6212,-4.2818,16.9199,255,255,255
18000,-0.6252,-4.2769,16.9303,255,255,255
18250,-0.6288,-4.2736,16.9364,255,255,255
18500,-0.6319,-4.2718,16.9386,255,255,255
18750,-0.6347,-4.2715,16.9371,255,255,255
19000,-0.637,-4.2725,16.9321,255,255,255
19250,-0.639,-4.2748,16.9238,255,255,255
19500,-0.6407,-4.2783,16.9127,255,255,255
19750,-0.6422,-4.2829,16.8988,255,255,255
20000,-0.6433,-4.2886,16.8824,255,255,255
20250,-0.6442,-4.2952,16.8639,255,255,255
20500,-0.645,-4.3027,16.8433,255,255,255
20750,-0.6455,-4.3109,16.8211,255,255,255
21000,-0.646,-4.32,16.7975,255,255,255
21250,-0.6463,-4.3296,16.7726,255,255,255
21500,-0.6466,-4.3398,16.7468,255,255,255
21750,-0.6468,-4.3505,16.7203,255,255,255
22000,-0.647,-4.3616,16.6934,255,255,255
22250,-0.6472,-4.3731,16.6662,255,255,255
22500,-0.6474,-4.3848,16.6392,255,255,255
22750,-0.6478,-4.3966,16.6124,255,255,255
23000,-0.6482,-4.4086,16.5862,255,255,255
23250,-0.6488,-4.4205,16.5609,255,255,255
23500,-0.6496,-4.4324,16.5366,255,255,255
23750,-0.6506,-4.4442,16.5136,255,255,255
24000,-0.6517,-4.4557,16.4922,255,255,255
24250,-0.6532,-4.4669,16.4726,255,255,255
24500,-0.6549,-4.4777,16.4551,255,255,255
24750,-0.657,-4.4881,16.4399,255,255,255
25000,-0.6594,-4.4979,16.4273,255,255,255
25250,-0.6622,-4.5071,16.4175,255,255,255
25500,-0.6654,-4.5156,16.4108,255,255,255
25750,-0.6689,-4.5237,16.4069,255,255,255
26000,-0.6724,-4.5316,16.4046,255,255,255
26250,-0.6759,-4.5396,16.4039,255,255,255
26500,-0.6794,-4.5476,16.4046,255,255,255
26750,-0.6829,-4.5555,16.4067,255,255,255
27000,-0.6864,-4.5635,16.4099,255,255,255
27250,-0.69,-4.5714,16.4143,255,255,255
27500,-0.6935,-4.5793,16.4196,255,255,255
27750,-0.697,-4.5873,16.4259,255,255,255
28000,-0.7005,-4.5952,16.4328,255,255,255
28250,-0.704,-4.6031,16.4404,255,255,255
28500,-0.7075,-4.611,16.4485,255,255,255
28750,-0.711,-4.6189,16.457,255,255,255
29000,-0.7146,-4.6268,16.4658,255,255,255
29250,-0.7181,-4.6347,16.4748,255,255,255
29500,-0.7216,-4.6426,16.4838,255,255,255
29750,-0.7251,-4.6505,16.4928,255,255,255
30000,-0.7286,-4.6583,16.5017,255,255,255
30250,-0.7321,-4.6662,16.5102,255,255,255
30500,-0.7357,-4.6741,16.5183,255,255,255
30750,-0.7392,-4.682,16.526,255,255,255
31000,-0.7427,-4.6899,16.533,255,255,255
31250,-0.7462,-4.6978,16.5392,255,255,255
31500,-0.7497,-4.7057,16.5446,255,255,255
31750,-0.7533,-4.7136,16.5491,255,255,255
32000,-0.7568,-4.7215,16.5524,255,255,255
32250,-0.7603,-4.7293,16.5545,255,255,255
32500,-0.7638,-4.7373,16.5554,255,255,255
32750,-0.7673,-4.7452,16.5548,255,255,255
33000,-0.7708,-4.7531,16.5526,255,255,255
33250,-0.7744,-4.761,16.5488,255,255,255
33500,-0.7779,-4.7689,16.5432,255,255,255
33750,-0.7814,-4.7769,16.5358,255,255,255
34000,-0.7849,-4.7848,16.5263,255,255,255
34250,-0.7884,-4.7928,16.5147,255,255,255
34500,-0.7919,-4.8007,16.5009,255,255,255
34750,-0.7954,-4.8087,16.4847,255,255,255
35000,-0.7989,-4.8167,16.466,255,255,255
35250,-0.8024,-4.8247,16.4448,255,255,255
35500,-0.8059,-4.8323,16.4211,255,255,255
35750,-0.8094,-4.8391,16.3954,255,255,255
36000,-0.8129,-4.8449,16.3677,255,255,255
36250,-0.8164,-4.85,16.3382,255,255,255
36500,-0.8199,-4.8543,16.3069,255,255,255
36750,-0.8234,-4.8579,16.274,255,255,255
37000,-0.8269,-4.8608,16.2396,255,255,255
37250,-0.8303,-4.8631,16.2037,255,255,255
37500,-0.8338,-4.865,16.1665,255,255,255
37750,-0.8373,-4.8663,16.1282,255,255,255
38000,-0.8408,-4.8672,16.0887,255,255,255
38250,-0.8443,-4.8678,16.0482,255,255,255
38500,-0.8478,-4.8681,16.0068,255,255,255
38750,-0.8512,-4.8681,15.9647,255,255,255
39000,-0.8547,-4.868,15.9218,255,255,255
39250,-0.8582,-4.8677,15.8784,255,255,255
39500,-0.8617,-4.8674,15.8345,255,255,255
39750,-0.8652,-4.867,15.7902,255,255,255
40000,-0.8686,-4.8667,15.7457,255,255,255
40250,-0.8721,-4.8665,15.701,255,255,255
40500,-0.8756,-4.8665,15.6562,255,255,255
40750,-0.8791,-4.8667,15.6115,255,255,255
41000,-0.8826,-4.8671,15.5669,255,255,255
41250,-0.886,-4.8679,15.5227,255,255,255
41500,-0.8895,-4.8691,15.4787,255,255,255
41750,-0.893,-4.8708,15.4353,255,255,255
42000,-0.8965,-4.8729,15.3924,255,255,255
42250,-0.9,-4.8757,15.3502,255,255,255
42500,-0.9035,-4.879,15.3088,255,255,255
42750,-0.9069,-4.883,15.2682,255,255,255
43000,-0.9104,-4.8878,15.2287,255,255,255
43250,-0.9139,-4.8934,15.1903,255,255,255
43500,-0.9174,-4.8998,15.1531,255,255,255
43750,-0.9209,-4.9072,15.1171,255,255,255
44000,-0.9244,-4.9155,15.0826,255,255,255
44250,-0.928,-4.9251,15.0498,255,255,255
44500,-0.9318,-4.9365,15.0189,255,255,255
44750,-0.9358,-4.9494,14.99,255,255,255
45000,-0.9399,-4.9638,14.9629,255,255,255
45250,-0.9442,-4.9795,14.9376,255,255,255
45500,-0.9486,-4.9963,14.914,255,255,255
45750,-0.953,-5.0141,14.8921,255,255,255
46000,-0.9576,-5.0326,14.8718,255,255,255
46250,-0.9621,-5.0518,14.853,255,255,255
46500,-0.9667,-5.0715,14.8358,255,255,255
46750,-0.9712,-5.0916,14.82,255,255,255
47000,-0.9757,-5.1118,14.8055,255,255,255
47250,-0.9802,-5.132,14.7925,255,255,255
47500,-0.9845,-5.1521,14.7806,255,255,255
47750,-0.9888,-5.172,14.77,255,255,255
48000,-0.9928,-5.1913,14.7605,255,255,255
48250,-0.9967,-5.2101,14.7521,255,255,255
48500,-1.0004,-5.228,14.7448,255,255,255
48750,-1.0039,-5.2451,14.7384,255,255,255
49000,-1.0072,-5.2611,14.7329,255,255,255
49250,-1.0101,-5.2758,14.7283,255,255,255
49500,-1.0128,-5.2891,14.7245,255,255,255
49750,-1.0151,-5.3009,14.7214,255,255,255
50000,-1.0171,-5.311,14.719,255,255,255
50250,-1.0187,-5.3192,14.7172,255,255,255
50500,-1.0199,-5.3253,14.716,255,255,255
50750,-1.0207,-5.3293,14.7153,255,255,255
51000,-1.021,-5.331,14.715,255,255,255
51250,-1.021,-5.331,14.715,255,255,255
51500,-1.021,-5.331,14.715,255,255,255
51750,-1.021,-5.331,14.715,255,255,255
52000,-1.021,-5.331,14.715,255,255,255
52250,-1.021,-5.331,14.715,255,255,255
52500,-1.021,-5.331,14.715,255,255,255
52750,-1.021,-5.331,14.715,255,255,255
53000,-1.021,-5.331,14.715,255,255,255
53250,-1.021,-5.331,14.715,255,255,255
53500,-1.021,-5.331,14.715,255,255,255
53750,-1.021,-5.331,14.715,255,255,255
54000,-1.021,-5.331,14.715,255,255,255
54250,-1.0258,-5.3211,14.6481,255,255,255
54500,-1.0369,-5.2983,14.435,255,255,255
54750,-1.0415,-5.2888,14.1523,255,255,255
55000,-1.0264,-5.3199,13.8793,255,255,255
55250,-0.9725,-5.4311,13.6823,255,255,255
55500,-0.8638,-5.6548,13.5348,255,255,255
55750,-0.7022,-5.9862,13.3701,255,255,255
56000,-0.4873,-6.4259,13.1395,255,255,255
56250,-0.2259,-6.9615,12.8581,255,255,255
56500,0.0638,-7.5557,12.546,255,255,255
56750,0.3634,-8.1703,12.2231,255,255,255
57000,0.6545,-8.7676,11.9094,255,255,255
57250,0.9188,-9.3096,11.6249,255,255,255
57500,1.1379,-9.7584,11.3893,255,255,255
57750,1.3037,-10.0976,11.2191,255,255,255
58000,1.424,-10.344,11.0806,255,255,255
58250,1.4937,-10.4869,10.911,255,255,255
58500,1.5143,-10.5295,10.6735,255,255,255
58750,1.5092,-10.5189,10.4108,255,255,255
59000,1.5003,-10.5006,10.1625,255,255,255
59250,1.5,-10.5,9.9624,255,255,255
59500,1.5,-10.5,9.8084,255,255,255
59750,1.5,-10.5,9.6841,255,255,255
60000,1.5,-10.5,9.573,255,255,255
60250,1.5,-10.5,9.4587,255,255,255
60500,1.5,-10.5,9.334,255,255,255
60750,1.5,-10.5,9.209,255,255,255
61000,1.5,-10.5,9.084,255,255,255
61250,1.5,-10.5,8.959,255,255,255
61500,1.5,-10.5,8.834,255,255,255
61750,1.5,-10.5,8.709,255,255,255
62000,1.5,-10.5,8.584,255,255,255
62250,1.5,-10.5,8.459,255,255,255
62500,1.5,-10.5,8.334,255,255,255
62750,1.5,-10.5,8.209,255,255,255
63000,1.5,-10.5,8.084,255,255,255
63250,1.5,-10.5,7.959,255,255,255
63500,1.5,-10.5,7.834,255,255,255
63750,1.5,-10.5,7.709,255,255,255
64000,1.5,-10.5,7.584,255,255,255
64250,1.5,-10.5,7.459,255,255,255
64500,1.5,-10.5,7.334,255,255,255
64750,1.5,-10.5,7.209,255,255,255
65000,1.5,-10.5,7.084,255,255,255
65250,1.5,-10.5,6.959,255,255,255
65500,1.5,-10.5,6.834,255,255,255
65750,1.5,-10.5,6.709,255,255,255
66000,1.5,-10.5,6.584,255,255,255
66250,1.5,-10.5,6.459,255,255,255
66500,1.5,-10.5,6.334,255,255,255
66750,1.5,-10.5,6.209,255,255,255
67000,1.5,-10.5,6.084,255,255,255
67250,1.5,-10.5,5.959,255,255,255
67500,1.5,-10.5,5.834,255,255,255
67750,1.5,-10.5,5.709,255,255,255
68000,1.5,-10.5,5.584,255,255,255
68250,1.5,-10.5,5.459,255,255,255
68500,1.5,-10.5,5.334,255,255,255
68750,1.5,-10.5,5.209,255,255,255
69000,1.5,-10.5,5.084,255,255,255
69250,1.5,-10.5,4.959,255,255,255
69500,1.5,-10.5,4.834,255,255,255
69750,1.5,-10.5,4.709,255,255,255
70000,1.5,-10.5,4.584,255,255,255
70250,1.5,-10.5,4.459,255,255,255
70500,1.5,-10.5,4.334,255,255,255
70750,1.5,-10.5,4.209,255,255,255
71000,1.5,-10.5,4.084,255,255,255
71250,1.5,-10.5,3.959,255,255,255
71500,1.5,-10.5,3.834,255,255,255
71750,1.5,-10.5,3.709,255,255,255
72000,1.5,-10.5,3.584,255,255,255
72250,1.5,-10.5,3.459,255,255,255
72500,1.5,-10.5,3.334,255,255,255
72750,1.5,-10.5,3.209,255,255,255
73000,1.5,-10.5,3.084,255,255,255
73250,1.5,-10.5,2.959,255,255,255
73500,1.5,-10.5,2.834,255,255,255
73750,1.5,-10.5,2.709,255,255,255
74000,1.5,-10.5,2.584,255,255,255
74250,1.5,-10.5,2.459,255,255,255
74500,1.5,-10.5,2.334,255,255,255
74750,1.5,-10.5,2.209,255,255,255
75000,1.5,-10.5,2.084,255,255,255
75250,1.5,-10.5,1.959,255,255,255
75500,1.5,-10.5,1.834,255,255,255
75750,1.5,-10.5,1.709,255,255,255
76000,1.5,-10.5,1.584,255,255,255
76250,1.5,-10.5,1.458,255,255,255
76500,1.5,-10.5,1.333,255,255,255
76750,1.5,-10.5,1.208,255,255,255
77000,1.5,-10.5,1.083,255,255,255
77250,1.5,-10.5,0.958,255,255,255
77500,1.5,-10.5,0.833,255,255,255
77750,1.5,-10.5,0.708,255,255,255
78000,1.5,-10.5,0.583,255,255,255
78250,1.5,-10.5,0.4482,255,255,255
78500,1.5,-10.5,0.299,255,255,255
78750,1.5,-10.5,0.1588,255,255,255
79000,1.5,-10.5,0.0515,255,255,255
79250,1.5,-10.5,0.0012,255,255,255
79500,1.5,-10.5,0,255,255,255
79750,1.5,-10.5,0,255,255,255
80000,1.5,-10.5,0,255,255,255
80250,1.5,-10.5,0,255,255,255
80500,1.5,-10.5,0,255,255,255
80750,1.5,-10.5,0,255,255,255
81000,1.5,-10.5,0,255,255,255
81250,1.5,-10.5,0,255,255,255
81500,1.5,-10.5,0,255,255,255
81750,1.5,-10.5,0,255,255,255
82000,1.5,-10.5,0,255,255,255
82250,1.5,-10.5,0,255,255,255
82500,1.5,-10.5,0,255,255,255
82750,1.5,-10.5,0,255,255,255
83000,1.5,-10.5,0,255,255,255
83250,1.5,-10.5,0,255,255,255
83500,1.5,-10.5,0,255,255,255
83750,1.5,-10.5,0,255,255,255
84000,1.5,-10.5,0,255,255,255
84250,1.5,-10.5,0,255,255,255
84500,1.5,-10.5,0,255,255,255
84750,1.5,-10.5,0,255,255,255
85000,1.5,-10.5,0,255,255,255
85250,1.5,-10.5,0,255,255,255
85500,1.5,-10.5,0,255,255,255
85750,1.5,-10.5,0,255,255,255
86000,1.5,-10.5,0,255,255,255
86250,1.5,-10.5,0,255,255,255
86500,1.5,-10.5,0,255,255,255
86750,1.5,-10.5,0,255,255,255
87000,1.5,-10.5,0,255,255,255
87250,1.5,-10.5,0,255,255,255
87500,1.5,-10.5,0,255,255,255
87750,1.5,-10.5,0,255,255,255
88000,1.5,-10.5,0,255,255,255
88250,1.5,-10.5,0,255,255,255
88500,1.5,-10.5,0,255,255,255
88750,1.5,-10.5,0,255,255,255
89000,1.5,-10.5,0,255,255,255
89250,1.5,-10.5,0,255,255,255
89500,1.5,-10.5,0,255,255,255
89750,1.5,-10.5,0,255,255,255
90000,1.5,-10.5,0,255,255,255
90250,1.5,-10.5,0,255,255,255
90500,1.5,-10.5,0,255,255,255
90750,1.5,-10.5,0,255,255,255
91000,1.5,-10.5,0,255,255,255
91250,1.5,-10.5,0,255,255,255
91500,1.5,-10.5,0,255,255,255
91750,1.5,-10.5,0,255,255,255
92000,1.5,-10.5,0,255,255,255
92250,1.5,-10.5,0,255,255,255
92500,1.5,-10.5,0,255,255,255
92750,1.5,-10.5,0,255,255,255
93000,1.5,-10.5,0,255,255,255
93250,1.5,-10.5,0,255,255,255
93500,1.5,-10.5,0,255,255,255
93750,1.5,-10.5,0,255,255,255
94000,1.5,-10.5,0,255,255,255
94250,1.5,-10.5,0,255,255,255
94500,1.5,-10.5,0,255,255,255
94750,1.5,-10.5,0,255,255,255
95000,1.5,-10.5,0,255,255,255
95250,1.5,-10.5,0,255,255,255
95500,1.5,-10.5,0,255,255,255
95750,1.5,-10.5,0,255,255,255
96000,1.5,-10.5,0,255,255,255
96250,1.5,-10.5,0,255,255,255
96500,1.5,-10.5,0,255,255,255
96750,1.5,-10.5,0,255,255,255
97000,1.5,-10.5,0,255,255,255
97250,1.5,-10.5,0,255,255,255
97500,1.5,-10.5,0,255,255,255
97750,1.5,-10.5,0,255,255,255
98000,1.5,-10.5,0,255,255,255
98250,1.5,-10.5,0,255,255,255
98500,1.5,-10.5,0,255,255,255
98750,1.5,-10.5,0,255,255,255
99000,1.5,-10.5,0,255,255,255
99250,1.5,-10.5,0,255,255,255
99500,1.5,-10.5,0,255,255,255
99750,1.5,-10.5,0,255,255,255
100000,1.5,-10.5,0,255,255,255
100250,1.5,-10.5,0,255,255,255
100500,1.5,-10.5,0,255,255,255
100750,1.5,-10.5,0,255,255,255
101000,1.5,-10.5,0,255,255,255
101250,1.5,-10.5,0,255,255,255
101500,1.5,-10.5,0,255,255,255
101750,1.5,-10.5,0,255,255,255
102000,1.5,-10.5,0,255,255,255
102250,1.5,-10.5,0,255,255,255
102500,1.5,-10.5,0,255,255,255
102750,1.5,-10.5,0,255,255,255
103000,1.5,-10.5,0,255,255,255
103250,1.5,-10.5,0,255,255,255
103500,1.5,-10.5,0,255,255,255
103750,1.5,-10.5,0,255,255,255
104000,1.5,-10.5,0,255,255,255
