Time [msec],x [m],y [m],z [m],Red,Green,Blue
0,1.5,-13.5,0,255,255,255
250,1.4989,-13.4899,0.016,255,255,255
500,1.4948,-13.4521,0.0762,255,255,255
750,1.4878,-13.3877,0.1785,255,255,255
1000,1.4781,-13.2984,0.3204,255,255,255
1250,1.4659,-13.1859,0.4992,255,255,255
1500,1.4513,-13.052,0.7122,255,255,255
1750,1.4345,-12.8981,0.9569,255,255,255
2000,1.4157,-12.7261,1.2305,255,255,255
2250,1.3951,-12.5375,1.5304,255,255,255
2500,1.3728,-12.334,1.8541,255,255,255
2750,1.349,-12.1174,2.1988,255,255,255
3000,1.3239,-11.8893,2.5619,255,255,255
3250,1.2977,-11.6513,2.9408,255,255,255
3500,1.2705,-11.4051,3.3328,255,255,255
3750,1.2425,-11.1524,3.7353,255,255,255
4000,1.2139,-10.8948,4.1457,255,255,255
4250,1.1848,-10.6341,4.5613,255,255,255
4500,1.1555,-10.3718,4.9795,255,255,255
4750,1.126,-10.1097,5.3976,255,255,255
5000,1.0967,-9.8494,5.8129,255,255,255
5250,1.0676,-9.5926,6.223,255,255,255
5500,1.0389,-9.3409,6.625,255,255,255
5750,1.0108,-9.0961,7.0165,255,255,255
6000,0.9835,-8.8597,7.3946,255,255,255
6250,0.9571,-8.6335,7.7569,255,255,255
6500,0.9318,-8.4192,8.1006,255,255,255
6750,0.9079,-8.2183,8.4231,255,255,255
7000,0.885,-8.0283,8.7282,255,255,255
7250,0.8627,-7.8421,9.0268,255,255,255
7500,0.841,-7.6596,9.3189,255,255,255
7750,0.8197,-7.4808,9.6045,255,255,255
8000,0.799,-7.3057,9.8835,255,255,255
8250,0.7788,-7.1345,10.1558,255,255,255
8500,0.7592,-6.967,10.4213,255,255,255
8750,0.7402,-6.8035,10.6799,255,255,255
9000,0.7217,-6.6439,10.9316,255,255,255
9250,0.7039,-6.4882,11.1762,255,255,255
9500,0.6866,-6.3366,11.4137,255,255,255
9750,0.6698,-6.1891,11.644,255,255,255
10000,0.6537,-6.0456,11.867,255,255,255
10250,0.6382,-5.9063,12.0826,255,255,255
10500,0.6233,-5.7713,12.2908,255,255,255
10750,0.6091,-5.6404,12.4913,255,255,255
11000,0.5954,-5.5139,12.6843,255,255,255
11250,0.5824,-5.3917,12.8695,255,255,255
11500,0.5701,-5.2738,13.0468,255,255,255
11750,0.5583,-5.1604,13.2163,255,255,255
12000,0.5473,-5.0515,13.3778,255,255,255
12250,0.5369,-4.947,13.5312,255,255,255
12500,0.5272,-4.8472,13.6765,255,255,255
12750,0.5181,-4.7519,13.8134,255,255,255
13000,0.5097,-4.6613,13.9421,255,255,255
13250,0.5021,-4.5754,14.0623,255,255,255
13500,0.4951,-4.4942,14.1741,255,255,255
13750,0.4888,-4.4175,14.2774,255,255,255
14000,0.4833,-4.3447,14.373,255,255,255
14250,0.4784,-4.2758,14.4609,255,255,255
14500,0.4741,-4.2107,14.5414,255,255,255
14750,0.4704,-4.1492,14.6148,255,255,255
15000,0.4674,-4.0912,14.6814,255,255,255
15250,0.4648,-4.0368,14.7412,255,255,255
15500,0.4628,-3.9857,14.7947,255,255,255
15750,0.4613,-3.9379,14.8419,255,255,255
16000,0.4603,-3.8934,14.8833,255,255,255
16250,0.4597,-3.8519,14.9189,255,255,255
16500,0.4595,-3.8135,14.949,255,255,255
16750,0.4597,-3.778,14.9739,255,255,255
17000,0.4602,-3.7453,14.9938,255,255,255
17250,0.4611,-3.7154,15.0089,255,255,255
17500,0.4622,-3.6882,15.0195,255,255,255
17750,0.4636,-3.6635,15.0258,255,255,255
18000,0.4653,-3.6413,15.028,255,255,255
18250,0.4672,-3.6215,15.0265,255,255,255
18500,0.4692,-3.604,15.0213,255,255,255
18750,0.4714,-3.5887,15.0128,255,255,255
19000,0.4738,-3.5755,15.0012,255,255,255
19250,0.4762,-3.5644,14.9867,255,255,255
19500,0.4787,-3.5552,14.9695,255,255,255
19750,0.4812,-3.5478,14.95,255,255,255
20000,0.4838,-3.5422,14.9283,255,255,255
20250,0.4863,-3.5383,14.9047,255,255,255
20500,0.4888,-3.5359,14.8793,255,255,255
20750,0.4912,-3.535,14.8526,255,255,255
21000,0.4935,-3.5355,14.8246,255,255,255
21250,0.4957,-3.5373,14.7956,255,255,255
21500,0.4977,-3.5404,14.7658,255,255,255
21750,0.4995,-3.5445,14.7356,255,255,255
22000,0.5011,-3.5497,14.705,255,255,255
22250,0.5025,-3.5558,14.6745,255,255,255
22500,0.5036,-3.5628,14.6441,255,255,255
22750,0.5044,-3.5705,14.6142,255,255,255
23000,0.5048,-3.5789,14.5849,255,255,255
23250,0.5049,-3.5878,14.5565,255,255,255
23500,0.5046,-3.5973,14.5293,255,255,255
23750,0.5039,-3.6072,14.5035,255,255,255
24000,0.5028,-3.6173,14.4792,255,255,255
24250,0.5012,-3.6277,14.4569,255,255,255
24500,0.499,-3.6382,14.4366,255,255,255
24750,0.4964,-3.6487,14.4186,255,255,255
25000,0.4932,-3.6592,14.4032,255,255,255
25250,0.4894,-3.6695,14.3906,255,255,255
25500,0.485,-3.6796,14.381,255,255,255
25750,0.4799,-3.6894,14.3747,255,255,255
26000,0.4744,-3.6991,14.3712,255,255,255
26250,0.4689,-3.7094,14.3692,255,255,255
26500,0.4634,-3.7203,14.3685,255,255,255
26750,0.4579,-3.7317,14.369,255,255,255
27000,0.4523,-3.7435,14.3707,255,255,255
27250,0.4468,-3.7558,14.3734,255,255,255
27500,0.4413,-3.7684,14.377,255,255,255
27750,0.4357,-3.7814,14.3813,255,255,255
28000,0.4302,-3.7946,14.3864,255,255,255
28250,0.4246,-3.8081,14.392,255,255,255
28500,0.4191,-3.8218,14.3981,255,255,255
28750,0.4136,-3.8357,14.4045,255,255,255
29000,0.408,-3.8496,14.4111,255,255,255
29250,0.4025,-3.8637,14.4179,255,255,255
29500,0.397,-3.8777,14.4247,255,255,255
29750,0.3915,-3.8917,14.4314,255,255,255
30000,0.386,-3.9057,14.4379,255,255,255
30250,0.3805,-3.9195,14.444,255,255,255
30500,0.375,-3.9332,14.4497,255,255,255
30750,0.3696,-3.9467,14.4549,255,255,255
31000,0.3641,-3.9599,14.4594,255,255,255
31250,0.3587,-3.9729,14.4631,255,255,255
31500,0.3533,-3.9855,14.466,255,255,255
31750,0.3479,-3.9977,14.4678,255,255,255
32000,0.3425,-4.0095,14.4686,255,255,255
32250,0.3371,-4.0208,14.4681,255,255,255
32500,0.3318,-4.0316,14.4663,255,255,255
32750,0.3265,-4.0419,14.4631,255,255,255
33000,0.3212,-4.0515,14.4583,255,255,255
33250,0.3159,-4.0605,14.4519,255,255,255
33500,0.3107,-4.0688,14.4437,255,255,255
33750,0.3055,-4.0764,14.4336,255,255,255
34000,0.3003,-4.0831,14.4215,255,255,255
34250,0.2951,-4.0891,14.4073,255,255,255
34500,0.29,-4.0942,14.3909,255,255,255
34750,0.2849,-4.0983,14.3722,255,255,255
35000,0.2799,-4.1015,14.351,255,255,255
35250,0.2748,-4.1037,14.3272,255,255,255
35500,0.2698,-4.1045,14.3012,255,255,255
35750,0.2648,-4.1031,14.2736,255,255,255
36000,0.2597,-4.0997,14.2445,255,255,255
36250,0.2546,-4.0944,14.214,255,255,255
36500,0.2494,-4.0873,14.1822,255,255,255
36750,0.2442,-4.0786,14.1491,255,255,255
37000,0.239,-4.0684,14.1148,255,255,255
37250,0.2338,-4.0568,14.0794,255,255,255
37500,0.2285,-4.044,14.043,255,255,255
37750,0.2232,-4.03,14.0056,255,255,255
38000,0.2179,-4.0151,13.9673,255,255,255
38250,0.2126,-3.9993,13.9283,255,255,255
38500,0.2072,-3.9828,13.8885,255,255,255
38750,0.2018,-3.9657,13.848,255,255,255
39000,0.1964,-3.9481,13.807,255,255,255
39250,0.191,-3.9302,13.7654,255,255,255
39500,0.1855,-3.9121,13.7235,255,255,255
39750,0.1801,-3.8938,13.6811,255,255,255
40000,0.1746,-3.8757,13.6386,255,255,255
40250,0.1691,-3.8577,13.5958,255,255,255
40500,0.1637,-3.84,13.5528,255,255,255
40750,0.1582,-3.8228,13.5099,255,255,255
41000,0.1526,-3.8061,13.4669,255,255,255
41250,0.1471,-3.7901,13.4241,255,255,255
41500,0.1416,-3.775,13.3815,255,255,255
41750,0.1361,-3.7608,13.3391,255,255,255
42000,0.1306,-3.7477,13.297,255,255,255
42250,0.125,-3.7358,13.2553,255,255,255
42500,0.1195,-3.7252,13.2142,255,255,255
42750,0.114,-3.7161,13.1736,255,255,255
43000,0.1085,-3.7086,13.1336,255,255,255
43250,0.1029,-3.7029,13.0943,255,255,255
43500,0.0974,-3.699,13.0558,255,255,255
43750,0.0919,-3.6971,13.0182,255,255,255
44000,0.0863,-3.6976,12.9816,255,255,255
44250,0.0804,-3.7008,12.9462,255,255,255
44500,0.0742,-3.7065,12.9119,255,255,255
44750,0.0678,-3.7146,12.8788,255,255,255
45000,0.0611,-3.7248,12.8469,255,255,255
45250,0.0543,-3.737,12.8162,255,255,255
45500,0.0474,-3.7509,12.7867,255,255,255
45750,0.0404,-3.7663,12.7584,255,255,255
46000,0.0334,-3.7831,12.7313,255,255,255
46250,0.0263,-3.8011,12.7055,255,255,255
46500,0.0192,-3.82,12.6809,255,255,255
46750,0.0122,-3.8396,12.6575,255,255,255
47000,0.0053,-3.8598,12.6354,255,255,255
47250,-0.0015,-3.8804,12.6146,255,255,255
47500,-0.0081,-3.9011,12.595,255,255,255
47750,-0.0145,-3.9217,12.5767,255,255,255
48000,-0.0207,-3.9421,12.5597,255,255,255
48250,-0.0266,-3.9621,12.544,255,255,255
48500,-0.0322,-3.9814,12.5296,255,255,255
48750,-0.0375,-3.9998,12.5165,255,255,255
49000,-0.0423,-4.0172,12.5047,255,255,255
49250,-0.0468,-4.0334,12.4943,255,255,255
49500,-0.0507,-4.0481,12.4852,255,255,255
49750,-0.0542,-4.0612,12.4774,255,255,255
50000,-0.0572,-4.0724,12.471,255,255,255
50250,-0.0596,-4.0816,12.466,255,255,255
50500,-0.0614,-4.0886,12.4623,255,255,255
50750,-0.0625,-4.0931,12.4599,255,255,255
51000,-0.063,-4.095,12.459,255,255,255
51250,-0.063,-4.095,12.459,255,255,255
51500,-0.063,-4.095,12.459,255,255,255
51750,-0.063,-4.095,12.459,255,255,255
52000,-0.063,-4.095,12.459,255,255,255
52250,-0.063,-4.095,12.459,255,255,255
52500,-0.063,-4.095,12.459,255,255,255
52750,-0.063,-4.095,12.459,255,255,255
53000,-0.063,-4.095,12.459,255,255,255
53250,-0.063,-4.095,12.459,255,255,255
53500,-0.063,-4.095,12.459,255,255,255
53750,-0.063,-4.095,12.459,255,255,255
54000,-0.063,-4.095,12.459,255,255,255
54250,-0.063,-4.095,12.459,255,255,255
54500,-0.063,-4.095,12.459,255,255,255
54750,-0.063,-4.095,12.459,255,255,255
55000,-0.063,-4.095,12.459,255,255,255
55250,-0.063,-4.095,12.459,255,255,255
55500,-0.063,-4.095,12.459,255,255,255
55750,-0.063,-4.095,12.459,255,255,255
56000,-0.063,-4.095,12.459,255,255,255
56250,-0.0651,-4.0823,12.3875,255,255,255
56500,-0.07,-4.0529,12.1638,255,255,255
56750,-0.0721,-4.0408,11.8767,255,255,255
57000,-0.0654,-4.0807,11.6181,255,255,255
57250,-0.0407,-4.2283,11.4726,255,255,255
57500,0.0084,-4.5232,11.4284,255,255,255
57750,0.0777,-4.9407,11.4174,255,255,255
58000,0.1698,-5.496,11.3906,255,255,255
58250,0.2862,-6.1961,11.3563,255,255,255
58500,0.4098,-6.9393,11.3199,255,255,255
58750,0.5294,-7.6588,11.2849,255,255,255
59000,0.6489,-8.3773,11.2499,255,255,255
59250,0.7684,-9.0958,11.2149,255,255,255
59500,0.8879,-9.8143,11.1799,255,255,255
59750,1.0074,-10.5328,11.1449,255,255,255
60000,1.1269,-11.2513,11.1099,255,255,255
60250,1.2405,-11.9354,11.089,255,255,255
60500,1.3362,-12.5116,11.0902,255,255,255
60750,1.412,-12.9688,11.0817,255,255,255
61000,1.4663,-13.2962,11.0311,255,255,255
61250,1.4972,-13.4831,10.9057,255,255,255
61500,1.5076,-13.5457,10.6915,255,255,255
61750,1.5078,-13.5471,10.4332,255,255,255
62000,1.5035,-13.5211,10.1763,255,255,255
62250,1.5001,-13.5006,9.9657,255,255,255
62500,1.5,-13.5,9.8113,255,255,255
62750,1.5,-13.5,9.6676,255,255,255
63000,1.5,-13.5,9.5319,255,255,255
63250,1.5,-13.5,9.4031,255,255,255
63500,1.5,-13.5,9.2797,255,255,255
63750,1.5,-13.5,9.1605,255,255,255
64000,1.5,-13.5,9.0441,255,255,255
64250,1.5,-13.5,8.9292,255,255,255
64500,1.5,-13.5,8.8146,255,255,255
64750,1.5,-13.5,8.6989,255,255,255
65000,1.5,-13.5,8.5808,255,255,255
65250,1.5,-13.5,8.4589,255,255,255
65500,1.5,-13.5,8.334,255,255,255
65750,1.5,-13.5,8.209,255,255,255
66000,1.5,-13.5,8.084,255,255,255
66250,1.5,-13.5,7.959,255,255,255
66500,1.5,-13.5,7.834,255,255,255
66750,1.5,-13.5,7.709,255,255,255
67000,1.5,-13.5,7.584,255,255,255
67250,1.5,-13.5,7.459,255,255,255
67500,1.5,-13.5,7.334,255,255,255
67750,1.5,-13.5,7.209,255,255,255
68000,1.5,-13.5,7.084,255,255,255
68250,1.5,-13.5,6.959,255,255,255
68500,1.5,-13.5,6.834,255,255,255
68750,1.5,-13.5,6.709,255,255,255
69000,1.5,-13.5,6.584,255,255,255
69250,1.5,-13.5,6.459,255,255,255
69500,1.5,-13.5,6.334,255,255,255
69750,1.5,-13.5,6.209,255,255,255
70000,1.5,-13.5,6.084,255,255,255
70250,1.5,-13.5,5.959,255,255,255
70500,1.5,-13.5,5.834,255,255,255
70750,1.5,-13.5,5.709,255,255,255
71000,1.5,-13.5,5.584,255,255,255
71250,1.5,-13.5,5.459,255,255,255
71500,1.5,-13.5,5.334,255,255,255
71750,1.5,-13.5,5.209,255,255,255
72000,1.5,-13.5,5.084,255,255,255
72250,1.5,-13.5,4.959,255,255,255
72500,1.5,-13.5,4.834,255,255,255
72750,1.5,-13.5,4.709,255,255,255
73000,1.5,-13.5,4.584,255,255,255
73250,1.5,-13.5,4.459,255,255,255
73500,1.5,-13.5,4.334,255,255,255
73750,1.5,-13.5,4.209,255,255,255
74000,1.5,-13.5,4.084,255,255,255
74250,1.5,-13.5,3.959,255,255,255
74500,1.5,-13.5,3.834,255,255,255
74750,1.5,-13.5,3.709,255,255,255
75000,1.5,-13.5,3.584,255,255,255
75250,1.5,-13.5,3.459,255,255,255
75500,1.5,-13.5,3.334,255,255,255
75750,1.5,-13.5,3.209,255,255,255
76000,1.5,-13.5,3.084,255,255,255
76250,1.5,-13.5,2.959,255,255,255
76500,1.5,-13.5,2.834,255,255,255
76750,1.5,-13.5,2.709,255,255,255
77000,1.5,-13.5,2.584,255,255,255
77250,1.5,-13.5,2.459,255,255,255
77500,1.5,-13.5,2.334,255,255,255
77750,1.5,-13.5,2.209,255,255,255
78000,1.5,-13.5,2.084,255,255,255
78250,1.5,-13.5,1.959,255,255,255
78500,1.5,-13.5,1.834,255,255,255
78750,1.5,-13.5,1.709,255,255,255
79000,1.5,-13.5,1.584,255,255,255
79250,1.5,-13.5,1.458,255,255,255
79500,1.5,-13.5,1.333,255,255,255
79750,1.5,-13.5,1.208,255,255,255
80000,1.5,-13.5,1.083,255,255,255
80250,1.5,-13.5,0.958,255,255,255
80500,1.5,-13.5,0.833,255,255,255
80750,1.5,-13.5,0.708,255,255,255
81000,1.5,-13.5,0.583,255,255,255
81250,1.5,-13.5,0.4482,255,255,255
81500,1.5,-13.5,0.299,255,255,255
81750,1.5,-13.5,0.1588,255,255,255
82000,1.5,-13.5,0.0515,255,255,255
82250,1.5,-13.5,0.0012,255,255,255
82500,1.5,-13.5,0,255,255,255
82750,1.5,-13.5,0,255,255,255
83000,1.5,-13.5,0,255,255,255
83250,1.5,-13.5,0,255,255,255
83500,1.5,-13.5,0,255,255,255
83750,1.5,-13.5,0,255,255,255
84000,1.5,-13.5,0,255,255,255
84250,1.5,-13.5,0,255,255,255
84500,1.5,-13.5,0,255,255,255
84750,1.5,-13.5,0,255,255,255
85000,1.5,-13.5,0,255,255,255
85250,1.5,-13.5,0,255,255,255
85500,1.5,-13.5,0,255,255,255
85750,1.5,-13.5,0,255,255,255
86000,1.5,-13.5,0,255,255,255
86250,1.5,-13.5,0,255,255,255
86500,1.5,-13.5,0,255,255,255
86750,1.5,-13.5,0,255,255,255
87000,1.5,-13.5,0,255,255,255
87250,1.5,-13.5,0,255,255,255
87500,1.5,-13.5,0,255,255,255
87750,1.5,-13.5,0,255,255,255
88000,1.5,-13.5,0,255,255,255
88250,1.5,-13.5,0,255,255,255
88500,1.5,-13.5,0,255,255,255
88750,1.5,-13.5,0,255,255,255
89000,1.5,-13.5,0,255,255,255
89250,1.5,-13.5,0,255,255,255
89500,1.5,-13.5,0,255,255,255
89750,1.5,-13.5,0,255,255,255
90000,1.5,-13.5,0,255,255,255
90250,1.5,-13.5,0,255,255,255
90500,1.5,-13.5,0,255,255,255
90750,1.5,-13.5,0,255,255,255
91000,1.5,-13.5,0,255,255,255
91250,1.5,-13.5,0,255,255,255
91500,1.5,-13.5,0,255,255,255
91750,1.5,-13.5,0,255,255,255
92000,1.5,-13.5,0,255,255,255
92250,1.5,-13.5,0,255,255,255
92500,1.5,-13.5,0,255,255,255
92750,1.5,-13.5,0,255,255,255
93000,1.5,-13.5,0,255,255,255
93250,1.5,-13.5,0,255,255,255
93500,1.5,-13.5,0,255,255,255
93750,1.5,-13.5,0,255,255,255
94000,1.5,-13.5,0,255,255,255
94250,1.5,-13.5,0,255,255,255
94500,1.5,-13.5,0,255,255,255
94750,1.5,-13.5,0,255,255,255
95000,1.5,-13.5,0,255,255,255
95250,1.5,-13.5,0,255,255,255
95500,1.5,-13.5,0,255,255,255
95750,1.5,-13.5,0,255,255,255
96000,1.5,-13.5,0,255,255,255
96250,1.5,-13.5,0,255,255,255
96500,1.5,-13.5,0,255,255,255
96750,1.5,-13.5,0,255,255,255
97000,1.5,-13.5,0,255,255,255
97250,1.5,-13.5,0,255,255,255
97500,1.5,-13.5,0,255,255,255
97750,1.5,-13.5,0,255,255,255
98000,1.5,-13.5,0,255,255,255
98250,1.5,-13.5,0,255,255,255
98500,1.5,-13.5,0,255,255,255
98750,1.5,-13.5,0,255,255,255
99000,1.5,-13.5,0,255,255,255
99250,1.5,-13.5,0,255,255,255
99500,1.5,-13.5,0,255,255,255
99750,1.5,-13.5,0,255,255,255
100000,1.5,-13.5,0,255,255,255
100250,1.5,-13.5,0,255,255,255
100500,1.5,-13.5,0,255,255,255
100750,1.5,-13.5,0,255,255,255
101000,1.5,-13.5,0,255,255,255
101250,1.5,-13.5,0,255,255,255
101500,1.5,-13.5,0,255,255,255
101750,1.5,-13.5,0,255,255,255
102000,1.5,-13.5,0,255,255,255
102250,1.5,-13.5,0,255,255,255
102500,1.5,-13.5,0,255,255,255
102750,1.5,-13.5,0,255,255,255
103000,1.5,-13.5,0,255,255,255
103250,1.5,-13.5,0,255,255,255
103500,1.5,-13.5,0,255,255,255
103750,1.5,-13.5,0,255,255,255
104000,1.5,-13.5,0,255,255,255
