Time [msec],x [m],y [m],z [m],Red,Green,Blue
0,-10.5,10.5,0,255,255,255
250,-10.4934,10.4905,0.0299,255,255,255
500,-10.4685,10.4547,0.1421,255,255,255
750,-10.4263,10.3938,0.3328,255,255,255
1000,-10.3678,10.3096,0.5968,255,255,255
1250,-10.2942,10.2036,0.929,255,255,255
1500,-10.2066,10.0774,1.3244,255,255,255
1750,-10.1061,9.9328,1.7778,255,255,255
2000,-9.9939,9.7713,2.2842,255,255,255
2250,-9.8712,9.5945,2.8384,255,255,255
2500,-9.7389,9.4041,3.4353,255,255,255
2750,-9.5984,9.2018,4.0699,255,255,255
3000,-9.4506,8.9891,4.737,255,255,255
3250,-9.2967,8.7677,5.4315,255,255,255
3500,-9.138,8.5392,6.1483,255,255,255
3750,-8.9754,8.3053,6.8824,255,255,255
4000,-8.8101,8.0675,7.6285,255,255,255
4250,-8.6433,7.8276,8.3817,255,255,255
4500,-8.476,7.5871,9.1367,255,255,255
4750,-8.3095,7.3476,9.8886,255,255,255
5000,-8.1448,7.1109,10.6322,255,255,255
5250,-7.9831,6.8786,11.3624,255,255,255
5500,-7.8255,6.6522,12.074,255,255,255
5750,-7.6732,6.4334,12.7621,255,255,255
6000,-7.5272,6.2238,13.4215,255,255,255
6250,-7.3887,6.0251,14.047,255,255,255
6500,-7.2589,5.8389,14.6336,255,255,255
6750,-7.136,5.6626,15.1891,255,255,255
7000,-7.0156,5.4889,15.7348,255,255,255
7250,-6.8976,5.3177,16.2712,255,255,255
7500,-6.7819,5.1491,16.798,255,255,255
7750,-6.6687,4.983,17.3151,255,255,255
8000,-6.558,4.8196,17.8223,255,255,255
8250,-6.4498,4.6588,18.3196,255,255,255
8500,-6.3442,4.5008,18.8067,255,255,255
8750,-6.2412,4.3454,19.2835,255,255,255
9000,-6.1409,4.1928,19.7499,255,255,255
9250,-6.0433,4.0429,20.2057,255,255,255
9500,-5.9484,3.8959,20.6507,255,255,255
9750,-5.8564,3.7518,21.0847,255,255,255
10000,-5.7671,3.6105,21.5078,255,255,255
10250,-5.6808,3.4721,21.9196,255,255,255
10500,-5.5974,3.3367,22.32,255,255,255
10750,-5.517,3.2043,22.7089,255,255,255
11000,-5.4396,3.0749,23.0862,255,255,255
11250,-5.3652,2.9485,23.4516,255,255,255
11500,-5.294,2.8253,23.805,255,255,255
11750,-5.2259,2.7051,24.1463,255,255,255
12000,-5.1609,2.5881,24.4753,255,255,255
12250,-5.0993,2.4743,24.7919,255,255,255
12500,-5.0409,2.3637,25.0958,255,255,255
12750,-4.9858,2.2564,25.3871,255,255,255
13000,-4.9341,2.1523,25.6654,255,255,255
13250,-4.8858,2.0516,25.9307,255,255,255
13500,-4.8409,1.9542,26.183,255,255,255
13750,-4.7991,1.8601,26.4227,255,255,255
14000,-4.7605,1.7691,26.6503,255,255,255
14250,-4.7249,1.6813,26.8661,255,255,255
14500,-4.6922,1.5965,27.0705,255,255,255
14750,-4.6624,1.5145,27.2637,255,255,255
15000,-4.6353,1.4354,27.4463,255,255,255
15250,-4.6108,1.359,27.6186,255,255,255
15500,-4.5888,1.2852,27.7808,255,255,255
15750,-4.5693,1.2139,27.9335,255,255,255
16000,-4.5522,1.1451,28.077,255,255,255
16250,-4.5374,1.0787,28.2115,255,255,255
16500,-4.5247,1.0144,28.3376,255,255,255
16750,-4.5141,0.9524,28.4555,255,255,255
17000,-4.5054,0.8924,28.5657,255,255,255
17250,-4.4987,0.8344,28.6685,255,255,255
17500,-4.4938,0.7783,28.7642,255,255,255
17750,-4.4905,0.724,28.8532,255,255,255
18000,-4.4889,0.6713,28.936,255,255,255
18250,-4.4888,0.6203,29.0128,255,255,255
18500,-4.4902,0.5708,29.084,255,255,255
18750,-4.4928,0.5227,29.15,255,255,255
19000,-4.4967,0.4759,29.2112,255,255,255
19250,-4.5018,0.4304,29.2678,255,255,255
19500,-4.5079,0.386,29.3204,255,255,255
19750,-4.5149,0.3427,29.3693,255,255,255
20000,-4.5228,0.3003,29.4147,255,255,255
20250,-4.5315,0.2587,29.4572,255,255,255
20500,-4.5409,0.218,29.497,255,255,255
20750,-4.5508,0.1779,29.5345,255,255,255
21000,-4.5613,0.1384,29.5701,255,255,255
21250,-4.5721,0.0994,29.6042,255,255,255
21500,-4.5832,0.0608,29.637,255,255,255
21750,-4.5946,0.0225,29.6691,255,255,255
22000,-4.6061,-0.0156,29.7007,255,255,255
22250,-4.6175,-0.0535,29.732,255,255,255
22500,-4.6287,-0.0911,29.7627,255,255,255
22750,-4.6397,-0.128,29.7928,255,255,255
23000,-4.6505,-0.1639,29.822,255,255,255
23250,-4.6611,-0.1987,29.8505,255,255,255
23500,-4.6716,-0.232,29.878,255,255,255
23750,-4.682,-0.2636,29.9044,255,255,255
24000,-4.6923,-0.2932,29.9298,255,255,255
24250,-4.7025,-0.3206,29.9541,255,255,255
24500,-4.7127,-0.3454,29.977,255,255,255
24750,-4.7229,-0.3674,29.9987,255,255,255
25000,-4.733,-0.3863,30.0189,255,255,255
25250,-4.7432,-0.4018,30.0376,255,255,255
25500,-4.7535,-0.4138,30.0547,255,255,255
25750,-4.7638,-0.4219,30.0702,255,255,255
26000,-4.7742,-0.4258,30.0839,255,255,255
26250,-4.7847,-0.4259,30.0959,255,255,255
26500,-4.7952,-0.4233,30.1067,255,255,255
26750,-4.8056,-0.4183,30.1164,255,255,255
27000,-4.8161,-0.4111,30.125,255,255,255
27250,-4.8265,-0.4019,30.1326,255,255,255
27500,-4.8369,-0.3911,30.1395,255,255,255
27750,-4.8472,-0.3787,30.1456,255,255,255
28000,-4.8576,-0.3652,30.1511,255,255,255
28250,-4.8679,-0.3506,30.1562,255,255,255
28500,-4.8782,-0.3353,30.1609,255,255,255
28750,-4.8885,-0.3195,30.1653,255,255,255
29000,-4.8987,-0.3034,30.1695,255,255,255
29250,-4.909,-0.2873,30.1738,255,255,255
29500,-4.9192,-0.2713,30.1781,255,255,255
29750,-4.9294,-0.2558,30.1826,255,255,255
30000,-4.9396,-0.241,30.1874,255,255,255
30250,-4.9497,-0.2271,30.1926,255,255,255
30500,-4.9599,-0.2144,30.1984,255,255,255
30750,-4.97,-0.203,30.2048,255,255,255
31000,-4.9801,-0.1933,30.2119,255,255,255
31250,-4.9902,-0.1854,30.2199,255,255,255
31500,-5.0002,-0.1796,30.2289,255,255,255
31750,-5.0103,-0.1762,30.2389,255,255,255
32000,-5.0203,-0.1754,30.2502,255,255,255
32250,-5.0303,-0.1774,30.2628,255,255,255
32500,-5.0403,-0.1822,30.2768,255,255,255
32750,-5.0505,-0.1897,30.2925,255,255,255
33000,-5.0606,-0.1998,30.3097,255,255,255
33250,-5.0708,-0.2127,30.3284,255,255,255
33500,-5.0811,-0.2284,30.3486,255,255,255
33750,-5.0914,-0.247,30.3701,255,255,255
34000,-5.1018,-0.2687,30.3929,255,255,255
34250,-5.1122,-0.2935,30.4169,255,255,255
34500,-5.1226,-0.3214,30.4421,255,255,255
34750,-5.133,-0.3526,30.4683,255,255,255
35000,-5.1433,-0.3871,30.4957,255,255,255
35250,-5.1537,-0.4251,30.5239,255,255,255
35500,-5.1641,-0.4666,30.5531,255,255,255
35750,-5.1744,-0.5117,30.5831,255,255,255
36000,-5.1847,-0.5604,30.6139,255,255,255
36250,-5.1949,-0.6129,30.6454,255,255,255
36500,-5.2051,-0.6693,30.6775,255,255,255
36750,-5.2153,-0.7295,30.7102,255,255,255
37000,-5.2253,-0.7938,30.7434,255,255,255
37250,-5.2353,-0.8616,30.7769,255,255,255
37500,-5.2454,-0.9319,30.8105,255,255,255
37750,-5.2554,-1.0045,30.8441,255,255,255
38000,-5.2655,-1.079,30.8778,255,255,255
38250,-5.2756,-1.1553,30.9116,255,255,255
38500,-5.2857,-1.2332,30.9455,255,255,255
38750,-5.2958,-1.3124,30.9794,255,255,255
39000,-5.3059,-1.3927,31.0133,255,255,255
39250,-5.3161,-1.4739,31.0474,255,255,255
39500,-5.3263,-1.5558,31.0815,255,255,255
39750,-5.3365,-1.6381,31.1157,255,255,255
40000,-5.3467,-1.7207,31.1499,255,255,255
40250,-5.357,-1.8032,31.1843,255,255,255
40500,-5.3672,-1.8855,31.2187,255,255,255
40750,-5.3775,-1.9674,31.2532,255,255,255
41000,-5.3878,-2.0486,31.2877,255,255,255
41250,-5.3981,-2.129,31.3223,255,255,255
41500,-5.4084,-2.2082,31.3571,255,255,255
41750,-5.4188,-2.2861,31.3918,255,255,255
42000,-5.4292,-2.3624,31.4267,255,255,255
42250,-5.4396,-2.4369,31.4616,255,255,255
42500,-5.45,-2.5095,31.4967,255,255,255
42750,-5.4604,-2.5798,31.5318,255,255,255
43000,-5.4708,-2.6477,31.567,255,255,255
43250,-5.4813,-2.7129,31.6022,255,255,255
43500,-5.4917,-2.7752,31.6376,255,255,255
43750,-5.5022,-2.8344,31.673,255,255,255
44000,-5.5127,-2.8904,31.7084,255,255,255
44250,-5.5229,-2.9435,31.7435,255,255,255
44500,-5.5329,-2.9936,31.7782,255,255,255
44750,-5.5428,-3.0407,31.8128,255,255,255
45000,-5.5527,-3.085,31.8471,255,255,255
45250,-5.5625,-3.1263,31.8813,255,255,255
45500,-5.5723,-3.1648,31.9153,255,255,255
45750,-5.5821,-3.2004,31.9493,255,255,255
46000,-5.5921,-3.2331,31.9833,255,255,255
46250,-5.6021,-3.263,32.0172,255,255,255
46500,-5.6124,-3.29,32.0513,255,255,255
46750,-5.6228,-3.3142,32.0854,255,255,255
47000,-5.6336,-3.3357,32.1197,255,255,255
47250,-5.6446,-3.3543,32.1541,255,255,255
47500,-5.656,-3.3701,32.1888,255,255,255
47750,-5.6677,-3.3832,32.2238,255,255,255
48000,-5.6799,-3.3935,32.259,255,255,255
48250,-5.6926,-3.4007,32.295,255,255,255
48500,-5.7056,-3.4043,32.3319,255,255,255
48750,-5.7187,-3.4048,32.3689,255,255,255
49000,-5.7316,-3.4029,32.4053,255,255,255
49250,-5.7441,-3.399,32.4404,255,255,255
49500,-5.7559,-3.3937,32.4735,255,255,255
49750,-5.7666,-3.3877,32.5037,255,255,255
50000,-5.7761,-3.3814,32.5303,255,255,255
50250,-5.7841,-3.3754,32.5525,255,255,255
50500,-5.7902,-3.3703,32.5697,255,255,255
50750,-5.7943,-3.3667,32.5811,255,255,255
51000,-5.796,-3.365,32.5859,255,255,255
51250,-5.796,-3.365,32.586,255,255,255
51500,-5.796,-3.365,32.586,255,255,255
51750,-5.796,-3.365,32.586,255,255,255
52000,-5.796,-3.365,32.586,255,255,255
52250,-5.796,-3.365,32.586,255,255,255
52500,-5.796,-3.365,32.586,255,255,255
52750,-5.796,-3.365,32.586,255,255,255
53000,-5.796,-3.365,32.586,255,255,255
53250,-5.796,-3.365,32.586,255,255,255
53500,-5.796,-3.365,32.586,255,255,255
53750,-5.796,-3.365,32.586,255,255,255
54000,-5.796,-3.365,32.586,255,255,255
54250,-5.7908,-3.3802,32.5346,255,255,255
54500,-5.7778,-3.4181,32.3604,255,255,255
54750,-5.7692,-3.4429,32.1027,255,255,255
55000,-5.7774,-3.4183,31.8034,255,255,255
55250,-5.8149,-3.3076,31.5043,255,255,255
55500,-5.8778,-3.1224,31.2261,255,255,255
55750,-5.9413,-2.9354,30.9486,255,255,255
56000,-6.0246,-2.6902,30.5847,255,255,255
56250,-6.1457,-2.3338,30.0556,255,255,255
56500,-6.2725,-1.9612,29.5021,255,255,255
56750,-6.3864,-1.6269,29.0052,255,255,255
57000,-6.4999,-1.2939,28.5102,255,255,255
57250,-6.6134,-0.9609,28.0152,255,255,255
57500,-6.7269,-0.6279,27.5202,255,255,255
57750,-6.8404,-0.2949,27.0252,255,255,255
58000,-6.9539,0.0381,26.5302,255,255,255
58250,-7.064,0.3735,26.0362,255,255,255
58500,-7.1771,0.7069,25.5412,255,255,255
58750,-7.2901,1.0402,25.0461,255,255,255
59000,-7.4032,1.3735,24.5511,255,255,255
59250,-7.5164,1.7068,24.0561,255,255,255
59500,-7.6295,2.04,23.5611,255,255,255
59750,-7.7427,2.3731,23.066,255,255,255
60000,-7.8559,2.7061,22.571,255,255,255
60250,-7.9692,3.0391,22.076,255,255,255
60500,-8.0825,3.3721,21.5809,255,255,255
60750,-8.1958,3.705,21.0859,255,255,255
61000,-8.3091,4.0378,20.5908,255,255,255
61250,-8.4225,4.3705,20.0957,255,255,255
61500,-8.5359,4.7032,19.6007,255,255,255
61750,-8.6493,5.0359,19.1056,255,255,255
62000,-8.7628,5.3685,18.6105,255,255,255
62250,-8.8763,5.701,18.1155,255,255,255
62500,-8.9898,6.0334,17.6204,255,255,255
62750,-9.1033,6.3658,17.1253,255,255,255
63000,-9.2169,6.6982,16.6302,255,255,255
63250,-9.326,7.0394,16.1394,255,255,255
63500,-9.439,7.3727,15.6444,255,255,255
63750,-9.552,7.7057,15.1489,255,255,255
64000,-9.665,8.0386,14.6529,255,255,255
64250,-9.778,8.3713,14.1566,255,255,255
64500,-9.891,8.7038,13.6598,255,255,255
64750,-10.004,9.0362,13.1626,255,255,255
65000,-10.1219,9.3866,12.6534,255,255,255
65250,-10.2426,9.7429,12.1246,255,255,255
65500,-10.3474,10.0518,11.6661,255,255,255
65750,-10.4208,10.2683,11.3275,255,255,255
66000,-10.4658,10.4007,11.0642,255,255,255
66250,-10.4894,10.4696,10.8449,255,255,255
66500,-10.4985,10.4959,10.6391,255,255,255
66750,-10.5,10.5,10.4163,255,255,255
67000,-10.5,10.5,10.1819,255,255,255
67250,-10.5,10.5,9.9849,255,255,255
67500,-10.5,10.5,9.8196,255,255,255
67750,-10.5,10.5,9.6784,255,255,255
68000,-10.5,10.5,9.554,255,255,255
68250,-10.5,10.5,9.4392,255,255,255
68500,-10.5,10.5,9.3266,255,255,255
68750,-10.5,10.5,9.2088,255,255,255
69000,-10.5,10.5,9.084,255,255,255
69250,-10.5,10.5,8.959,255,255,255
69500,-10.5,10.5,8.834,255,255,255
69750,-10.5,10.5,8.709,255,255,255
70000,-10.5,10.5,8.584,255,255,255
70250,-10.5,10.5,8.459,255,255,255
70500,-10.5,10.5,8.334,255,255,255
70750,-10.5,10.5,8.209,255,255,255
71000,-10.5,10.5,8.084,255,255,255
71250,-10.5,10.5,7.959,255,255,255
71500,-10.5,10.5,7.834,255,255,255
71750,-10.5,10.5,7.709,255,255,255
72000,-10.5,10.5,7.584,255,255,255
72250,-10.5,10.5,7.459,255,255,255
72500,-10.5,10.5,7.334,255,255,255
72750,-10.5,10.5,7.209,255,255,255
73000,-10.5,10.5,7.084,255,255,255
73250,-10.5,10.5,6.959,255,255,255
73500,-10.5,10.5,6.834,255,255,255
73750,-10.5,10.5,6.709,255,255,255
74000,-10.5,10.5,6.584,255,255,255
74250,-10.5,10.5,6.459,255,255,255
74500,-10.5,10.5,6.334,255,255,255
74750,-10.5,10.5,6.209,255,255,255
75000,-10.5,10.5,6.084,255,255,255
75250,-10.5,10.5,5.959,255,255,255
75500,-10.5,10.5,5.834,255,255,255
75750,-10.5,10.5,5.709,255,255,255
76000,-10.5,10.5,5.584,255,255,255
76250,-10.5,10.5,5.459,255,255,255
76500,-10.5,10.5,5.334,255,255,255
76750,-10.5,10.5,5.209,255,255,255
77000,-10.5,10.5,5.084,255,255,255
77250,-10.5,10.5,4.959,255,255,255
77500,-10.5,10.5,4.834,255,255,255
77750,-10.5,10.5,4.709,255,255,255
78000,-10.5,10.5,4.584,255,255,255
78250,-10.5,10.5,4.459,255,255,255
78500,-10.5,10.5,4.334,255,255,255
78750,-10.5,10.5,4.209,255,255,255
79000,-10.5,10.5,4.084,255,255,255
79250,-10.5,10.5,3.959,255,255,255
79500,-10.5,10.5,3.834,255,255,255
79750,-10.5,10.5,3.709,255,255,255
80000,-10.5,10.5,3.584,255,255,255
80250,-10.5,10.5,3.459,255,255,255
80500,-10.5,10.5,3.334,255,255,255
80750,-10.5,10.5,3.209,255,255,255
81000,-10.5,10.5,3.084,255,255,255
81250,-10.5,10.5,2.959,255,255,255
81500,-10.5,10.5,2.834,255,255,255
81750,-10.5,10.5,2.709,255,255,255
82000,-10.5,10.5,2.584,255,255,255
82250,-10.5,10.5,2.459,255,255,255
82500,-10.5,10.5,2.334,255,255,255
82750,-10.5,10.5,2.209,255,255,255
83000,-10.5,10.5,2.084,255,255,255
83250,-10.5,10.5,1.959,255,255,255
83500,-10.5,10.5,1.834,255,255,255
83750,-10.5,10.5,1.709,255,255,255
84000,-10.5,10.5,1.584,255,255,255
84250,-10.5,10.5,1.459,255,255,255
84500,-10.5,10.5,1.334,255,255,255
84750,-10.5,10.5,1.209,255,255,255
85000,-10.5,10.5,1.084,255,255,255
85250,-10.5,10.5,0.959,255,255,255
85500,-10.5,10.5,0.834,255,255,255
85750,-10.5,10.5,0.709,255,255,255
86000,-10.5,10.5,0.5748,255,255,255
86250,-10.5,10.5,0.4242,255,255,255
86500,-10.5,10.5,0.2742,255,255,255
86750,-10.5,10.5,0.142,255,255,255
87000,-10.5,10.5,0.0452,255,255,255
87250,-10.5,10.5,0.001,255,255,255
87500,-10.5,10.5,0,255,255,255
87750,-10.5,10.5,0,255,255,255
88000,-10.5,10.5,0,255,255,255
88250,-10.5,10.5,0,255,255,255
88500,-10.5,10.5,0,255,255,255
88750,-10.5,10.5,0,255,255,255
89000,-10.5,10.5,0,255,255,255
89250,-10.5,10.5,0,255,255,255
89500,-10.5,10.5,0,255,255,255
89750,-10.5,10.5,0,255,255,255
90000,-10.5,10.5,0,255,255,255
90250,-10.5,10.5,0,255,255,255
90500,-10.5,10.5,0,255,255,255
90750,-10.5,10.5,0,255,255,255
91000,-10.5,10.5,0,255,255,255
91250,-10.5,10.5,0,255,255,255
91500,-10.5,10.5,0,255,255,255
91750,-10.5,10.5,0,255,255,255
92000,-10.5,10.5,0,255,255,255
92250,-10.5,10.5,0,255,255,255
92500,-10.5,10.5,0,255,255,255
92750,-10.5,10.5,0,255,255,255
93000,-10.5,10.5,0,255,255,255
93250,-10.5,10.5,0,255,255,255
93500,-10.5,10.5,0,255,255,255
93750,-10.5,10.5,0,255,255,255
94000,-10.5,10.5,0,255,255,255
94250,-10.5,10.5,0,255,255,255
94500,-10.5,10.5,0,255,255,255
94750,-10.5,10.5,0,255,255,255
95000,-10.5,10.5,0,255,255,255
95250,-10.5,10.5,0,255,255,255
95500,-10.5,10.5,0,255,255,255
95750,-10.5,10.5,0,255,255,255
96000,-10.5,10.5,0,255,255,255
96250,-10.5,10.5,0,255,255,255
96500,-10.5,10.5,0,255,255,255
96750,-10.5,10.5,0,255,255,255
97000,-10.5,10.5,0,255,255,255
97250,-10.5,10.5,0,255,255,255
97500,-10.5,10.5,0,255,255,255
97750,-10.5,10.5,0,255,255,255
98000,-10.5,10.5,0,255,255,255
98250,-10.5,10.5,0,255,255,255
98500,-10.5,10.5,0,255,255,255
98750,-10.5,10.5,0,255,255,255
99000,-10.5,10.5,0,255,255,255
99250,-10.5,10.5,0,255,255,255
99500,-10.5,10.5,0,255,255,255
99750,-10.5,10.5,0,255,255,255
100000,-10.5,10.5,0,255,255,255
100250,-10.5,10.5,0,255,255,255
100500,-10.5,10.5,0,255,255,255
100750,-10.5,10.5,0,255,255,255
101000,-10.5,10.5,0,255,255,255
101250,-10.5,10.5,0,255,255,255
101500,-10.5,10.5,0,255,255,255
101750,-10.5,10.5,0,255,255,255
102000,-10.5,10.5,0,255,255,255
102250,-10.5,10.5,0,255,255,255
102500,-10.5,10.5,0,255,255,255
102750,-10.5,10.5,0,255,255,255
103000,-10.5,10.5,0,255,255,255
103250,-10.5,10.5,0,255,255,255
103500,-10.5,10.5,0,255,255,255
103750,-10.5,10.5,0,255,255,255
104000,-10.5,10.5,0,255,255,255
