Time [msec],x [m],y [m],z [m],Red,Green,Blue
0,0,0,0,255,255,255
250,0,0,0.0185,255,255,255
500,-0.0001,0.0001,0.0727,255,255,255
750,-0.0003,0.0003,0.1607,255,255,255
1000,-0.0005,0.0005,0.2807,255,255,255
1250,-0.0008,0.0008,0.4308,255,255,255
1500,-0.0011,0.0011,0.6091,255,255,255
1750,-0.0014,0.0015,0.8139,255,255,255
2000,-0.0018,0.0019,1.0432,255,255,255
2250,-0.0022,0.0023,1.2951,255,255,255
2500,-0.0027,0.0028,1.5678,255,255,255
2750,-0.0032,0.0034,1.8594,255,255,255
3000,-0.0037,0.0039,2.1682,255,255,255
3250,-0.0042,0.0045,2.4921,255,255,255
3500,-0.0047,0.0051,2.8293,255,255,255
3750,-0.0052,0.0057,3.178,255,255,255
4000,-0.0058,0.0064,3.5364,255,255,255
4250,-0.0063,0.0071,3.9025,255,255,255
4500,-0.0068,0.0077,4.2744,255,255,255
4750,-0.0073,0.0084,4.6504,255,255,255
5000,-0.0078,0.0091,5.0285,255,255,255
5250,-0.0083,0.0098,5.4069,255,255,255
5500,-0.0088,0.0105,5.7838,255,255,255
5750,-0.0092,0.0112,6.1572,255,255,255
6000,-0.0096,0.0118,6.5253,255,255,255
6250,-0.0099,0.0125,6.8862,255,255,255
6500,-0.0102,0.0131,7.2382,255,255,255
6750,-0.0105,0.0138,7.5792,255,255,255
7000,-0.0107,0.0144,7.9074,255,255,255
7250,-0.0109,0.0149,8.2211,255,255,255
7500,-0.011,0.0155,8.5182,255,255,255
7750,-0.011,0.016,8.797,255,255,255
8000,-0.0111,0.0165,9.0529,255,255,255
8250,-0.0112,0.0168,9.2823,255,255,255
8500,-0.0114,0.0172,9.4853,255,255,255
8750,-0.0117,0.0174,9.6617,255,255,255
9000,-0.012,0.0176,9.8112,255,255,255
9250,-0.0123,0.0178,9.9339,255,255,255
9500,-0.0126,0.0179,10.0296,255,255,255
9750,-0.0128,0.018,10.0981,255,255,255
10000,-0.0129,0.018,10.1392,255,255,255
10250,-0.013,0.018,10.153,255,255,255
10500,-0.013,0.018,10.153,255,255,255
10750,-0.013,0.018,10.153,255,255,255
11000,-0.013,0.018,10.153,255,255,255
11250,-0.013,0.018,10.153,255,255,255
11500,-0.013,0.018,10.153,255,255,255
11750,-0.013,0.018,10.153,255,255,255
12000,-0.013,0.018,10.153,255,255,255
12250,-0.013,0.018,10.153,255,255,255
12500,-0.013,0.018,10.153,255,255,255
12750,-0.013,0.018,10.153,255,255,255
13000,-0.013,0.018,10.153,255,255,255
13250,-0.013,0.018,10.153,255,255,255
13500,-0.013,0.018,10.153,255,255,255
13750,-0.013,0.018,10.153,255,255,255
14000,-0.013,0.018,10.153,255,255,255
14250,-0.013,0.018,10.153,255,255,255
14500,-0.013,0.018,10.153,255,255,255
14750,-0.013,0.018,10.153,255,255,255
15000,-0.013,0.018,10.153,255,255,255
15250,-0.013,0.018,10.153,255,255,255
15500,-0.013,0.018,10.153,255,255,255
15750,-0.013,0.018,10.153,255,255,255
16000,-0.013,0.018,10.153,255,255,255
16250,-0.013,0.018,10.153,255,255,255
16500,-0.013,0.018,10.153,255,255,255
16750,-0.013,0.018,10.153,255,255,255
17000,-0.013,0.018,10.153,255,255,255
17250,-0.013,0.018,10.153,255,255,255
17500,-0.013,0.018,10.153,255,255,255
17750,-0.013,0.018,10.153,255,255,255
18000,-0.013,0.018,10.153,255,255,255
18250,-0.013,0.018,10.153,255,255,255
18500,-0.013,0.018,10.153,255,255,255
18750,-0.013,0.018,10.153,255,255,255
19000,-0.013,0.018,10.153,255,255,255
19250,-0.013,0.018,10.153,255,255,255
19500,-0.013,0.018,10.153,255,255,255
19750,-0.013,0.018,10.153,255,255,255
20000,-0.013,0.018,10.153,255,255,255
20250,-0.013,0.018,10.153,255,255,255
20500,-0.013,0.018,10.153,255,255,255
20750,-0.013,0.018,10.153,255,255,255
21000,-0.013,0.018,10.153,255,255,255
21250,-0.013,0.018,10.153,255,255,255
21500,-0.013,0.018,10.153,255,255,255
21750,-0.013,0.018,10.153,255,255,255
22000,-0.013,0.018,10.153,255,255,255
22250,-0.013,0.018,10.153,255,255,255
22500,-0.013,0.018,10.153,255,255,255
22750,-0.013,0.018,10.153,255,255,255
23000,-0.013,0.018,10.153,255,255,255
23250,-0.013,0.018,10.153,255,255,255
23500,-0.013,0.018,10.153,255,255,255
23750,-0.013,0.018,10.153,255,255,255
24000,-0.013,0.018,10.153,255,255,255
24250,-0.013,0.018,10.153,255,255,255
24500,-0.013,0.018,10.153,255,255,255
24750,-0.013,0.018,10.153,255,255,255
25000,-0.013,0.018,10.153,255,255,255
25250,-0.013,0.018,10.153,255,255,255
25500,-0.013,0.018,10.153,255,255,255
25750,-0.013,0.018,10.153,255,255,255
26000,-0.013,0.018,10.153,255,255,255
26250,-0.013,0.018,10.153,255,255,255
26500,-0.013,0.018,10.153,255,255,255
26750,-0.013,0.018,10.153,255,255,255
27000,-0.013,0.018,10.153,255,255,255
27250,-0.013,0.018,10.153,255,255,255
27500,-0.013,0.018,10.153,255,255,255
27750,-0.013,0.018,10.153,255,255,255
28000,-0.013,0.018,10.153,255,255,255
28250,-0.013,0.018,10.153,255,255,255
28500,-0.013,0.018,10.153,255,255,255
28750,-0.013,0.018,10.153,255,255,255
29000,-0.013,0.018,10.153,255,255,255
29250,-0.013,0.018,10.153,255,255,255
29500,-0.013,0.018,10.153,255,255,255
29750,-0.013,0.018,10.153,255,255,255
30000,-0.013,0.018,10.153,255,255,255
30250,-0.013,0.018,10.153,255,255,255
30500,-0.013,0.018,10.153,255,255,255
30750,-0.013,0.018,10.153,255,255,255
31000,-0.013,0.018,10.153,255,255,255
31250,-0.013,0.018,10.153,255,255,255
31500,-0.013,0.018,10.153,255,255,255
31750,-0.013,0.018,10.153,255,255,255
32000,-0.013,0.018,10.153,255,255,255
32250,-0.013,0.018,10.153,255,255,255
32500,-0.013,0.018,10.153,255,255,255
32750,-0.013,0.018,10.153,255,255,255
33000,-0.013,0.018,10.153,255,255,255
33250,-0.013,0.018,10.153,255,255,255
33500,-0.013,0.018,10.153,255,255,255
33750,-0.013,0.018,10.153,255,255,255
34000,-0.013,0.018,10.153,255,255,255
34250,-0.013,0.018,10.153,255,255,255
34500,-0.013,0.018,10.153,255,255,255
34750,-0.013,0.018,10.153,255,255,255
35000,-0.013,0.018,10.153,255,255,255
35250,-0.013,0.018,10.153,255,255,255
35500,-0.013,0.018,10.153,255,255,255
35750,-0.013,0.018,10.153,255,255,255
36000,-0.013,0.018,10.153,255,255,255
36250,-0.013,0.018,10.153,255,255,255
36500,-0.013,0.018,10.153,255,255,255
36750,-0.013,0.018,10.153,255,255,255
37000,-0.013,0.018,10.153,255,255,255
37250,-0.013,0.018,10.153,255,255,255
37500,-0.013,0.018,10.153,255,255,255
37750,-0.013,0.018,10.153,255,255,255
38000,-0.013,0.018,10.153,255,255,255
38250,-0.013,0.018,10.153,255,255,255
38500,-0.013,0.018,10.153,255,255,255
38750,-0.013,0.018,10.153,255,255,255
39000,-0.013,0.018,10.153,255,255,255
39250,-0.013,0.018,10.153,255,255,255
39500,-0.013,0.018,10.153,255,255,255
39750,-0.013,0.018,10.153,255,255,255
40000,-0.013,0.018,10.153,255,255,255
40250,-0.013,0.016,10.1528,255,255,255
40500,-0.013,0.0101,10.1523,255,255,255
40750,-0.013,0.0003,10.1515,255,255,255
41000,-0.013,-0.0132,10.1507,255,255,255
41250,-0.013,-0.0303,10.1498,255,255,255
41500,-0.013,-0.051,10.1491,255,255,255
41750,-0.013,-0.0752,10.1485,255,255,255
42000,-0.013,-0.1027,10.1483,255,255,255
42250,-0.013,-0.1335,10.1484,255,255,255
42500,-0.013,-0.1675,10.1491,255,255,255
42750,-0.013,-0.2045,10.1504,255,255,255
43000,-0.013,-0.2446,10.1525,255,255,255
43250,-0.013,-0.2875,10.1553,255,255,255
43500,-0.013,-0.3332,10.1592,255,255,255
43750,-0.013,-0.3816,10.164,255,255,255
44000,-0.013,-0.4326,10.17,255,255,255
44250,-0.013,-0.4862,10.1773,255,255,255
44500,-0.013,-0.5422,10.1859,255,255,255
44750,-0.013,-0.6004,10.196,255,255,255
45000,-0.013,-0.661,10.2077,255,255,255
45250,-0.013,-0.7236,10.221,255,255,255
45500,-0.013,-0.7883,10.2362,255,255,255
45750,-0.013,-0.8549,10.2532,255,255,255
46000,-0.013,-0.9234,10.2722,255,255,255
46250,-0.013,-0.9937,10.2933,255,255,255
46500,-0.013,-1.0656,10.3166,255,255,255
46750,-0.013,-1.139,10.3422,255,255,255
47000,-0.013,-1.214,10.3703,255,255,255
47250,-0.013,-1.2903,10.4008,255,255,255
47500,-0.013,-1.3679,10.434,255,255,255
47750,-0.013,-1.4468,10.4699,255,255,255
48000,-0.013,-1.5267,10.5087,255,255,255
48250,-0.013,-1.6076,10.5504,255,255,255
48500,-0.013,-1.6894,10.5951,255,255,255
48750,-0.013,-1.772,10.643,255,255,255
49000,-0.013,-1.8549,10.6945,255,255,255
49250,-0.013,-1.9375,10.7501,255,255,255
49500,-0.013,-2.0195,10.8095,255,255,255
49750,-0.013,-2.101,10.8728,255,255,255
50000,-0.013,-2.1816,10.9397,255,255,255
50250,-0.013,-2.2612,11.0102,255,255,255
50500,-0.013,-2.3397,11.0842,255,255,255
50750,-0.013,-2.4168,11.1615,255,255,255
51000,-0.013,-2.4925,11.2421,255,255,255
51250,-0.013,-2.5665,11.3258,255,255,255
51500,-0.013,-2.6387,11.4126,255,255,255
51750,-0.013,-2.709,11.5022,255,255,255
52000,-0.013,-2.7771,11.5947,255,255,255
52250,-0.013,-2.8429,11.6899,255,255,255
52500,-0.013,-2.9062,11.7876,255,255,255
52750,-0.013,-2.967,11.8879,255,255,255
53000,-0.013,-3.0249,11.9905,255,255,255
53250,-0.013,-3.0798,12.0954,255,255,255
53500,-0.013,-3.1316,12.2024,255,255,255
53750,-0.013,-3.1801,12.3115,255,255,255
54000,-0.013,-3.2252,12.4225,255,255,255
54250,-0.013,-3.2667,12.5354,255,255,255
54500,-0.013,-3.3043,12.65,255,255,255
54750,-0.013,-3.338,12.7662,255,255,255
55000,-0.013,-3.3676,12.8839,255,255,255
55250,-0.013,-3.3929,13.0029,255,255,255
55500,-0.013,-3.4138,13.1233,255,255,255
55750,-0.013,-3.43,13.2448,255,255,255
56000,-0.013,-3.4415,13.3674,255,255,255
56250,-0.013,-3.448,13.491,255,255,255
56500,-0.013,-3.4494,13.6147,255,255,255
56750,-0.013,-3.4458,13.7379,255,255,255
57000,-0.013,-3.4373,13.8604,255,255,255
57250,-0.013,-3.424,13.982,255,255,255
57500,-0.013,-3.4061,14.1027,255,255,255
57750,-0.013,-3.3839,14.2224,255,255,255
58000,-0.013,-3.3573,14.3408,255,255,255
58250,-0.013,-3.3267,14.458,255,255,255
58500,-0.013,-3.292,14.5737,255,255,255
58750,-0.013,-3.2536,14.6879,255,255,255
59000,-0.013,-3.2115,14.8004,255,255,255
59250,-0.013,-3.1659,14.9112,255,255,255
59500,-0.013,-3.117,15.02,255,255,255
59750,-0.013,-3.0649,15.1268,255,255,255
60000,-0.013,-3.0098,15.2315,255,255,255
60250,-0.013,-2.9518,15.3339,255,255,255
60500,-0.013,-2.8912,15.4339,255,255,255
60750,-0.013,-2.8279,15.5315,255,255,255
61000,-0.013,-2.7623,15.6264,255,255,255
61250,-0.013,-2.6944,15.7185,255,255,255
61500,-0.013,-2.6244,15.8078,255,255,255
61750,-0.013,-2.5525,15.8942,255,255,255
62000,-0.013,-2.4788,15.9774,255,255,255
62250,-0.013,-2.4035,16.0574,255,255,255
62500,-0.013,-2.3267,16.134,255,255,255
62750,-0.013,-2.2486,16.2072,255,255,255
63000,-0.013,-2.1694,16.2768,255,255,255
63250,-0.013,-2.0891,16.3427,255,255,255
63500,-0.013,-2.008,16.4048,255,255,255
63750,-0.013,-1.9263,16.4629,255,255,255
64000,-0.013,-1.844,16.517,255,255,255
64250,-0.013,-1.7618,16.5673,255,255,255
64500,-0.0128,-1.6803,16.6143,255,255,255
64750,-0.0126,-1.5995,16.6581,255,255,255
65000,-0.0124,-1.5196,16.6989,255,255,255
65250,-0.0121,-1.4407,16.7367,255,255,255
65500,-0.0117,-1.3629,16.7716,255,255,255
65750,-0.0113,-1.2862,16.8038,255,255,255
66000,-0.0109,-1.2108,16.8334,255,255,255
66250,-0.0104,-1.1367,16.8604,255,255,255
66500,-0.0099,-1.0641,16.8851,255,255,255
66750,-0.0094,-0.9931,16.9075,255,255,255
67000,-0.0089,-0.9238,16.9277,255,255,255
67250,-0.0084,-0.8562,16.9458,255,255,255
67500,-0.008,-0.7905,16.962,255,255,255
67750,-0.0075,-0.7267,16.9764,255,255,255
68000,-0.007,-0.6651,16.989,255,255,255
68250,-0.0066,-0.6055,17,255,255,255
68500,-0.0063,-0.5483,17.0095,255,255,255
68750,-0.0059,-0.4934,17.0176,255,255,255
69000,-0.0057,-0.441,17.0245,255,255,255
69250,-0.0054,-0.3911,17.0302,255,255,255
69500,-0.0053,-0.3439,17.0348,255,255,255
69750,-0.0052,-0.2995,17.0385,255,255,255
70000,-0.0052,-0.2579,17.0414,255,255,255
70250,-0.0053,-0.2193,17.0436,255,255,255
70500,-0.0056,-0.1837,17.0452,255,255,255
70750,-0.0059,-0.1514,17.0463,255,255,255
71000,-0.0063,-0.1222,17.047,255,255,255
71250,-0.0068,-0.0965,17.0474,255,255,255
71500,-0.0075,-0.0741,17.0477,255,255,255
71750,-0.0083,-0.0554,17.048,255,255,255
72000,-0.0092,-0.0403,17.0484,255,255,255
72250,-0.0103,-0.029,17.0489,255,255,255
72500,-0.0116,-0.0215,17.0497,255,255,255
72750,-0.013,-0.018,17.051,255,255,255
73000,-0.0187,-0.0166,17.0569,255,255,255
73250,-0.0324,-0.0155,17.0714,255,255,255
73500,-0.054,-0.0146,17.0939,255,255,255
73750,-0.0832,-0.0138,17.1239,255,255,255
74000,-0.1196,-0.0133,17.161,255,255,255
74250,-0.163,-0.0129,17.2047,255,255,255
74500,-0.213,-0.0127,17.2544,255,255,255
74750,-0.2695,-0.0127,17.3097,255,255,255
75000,-0.332,-0.0127,17.3701,255,255,255
75250,-0.4004,-0.0129,17.4352,255,255,255
75500,-0.4743,-0.0132,17.5043,255,255,255
75750,-0.5535,-0.0135,17.577,255,255,255
76000,-0.6376,-0.0139,17.6529,255,255,255
76250,-0.7264,-0.0144,17.7313,255,255,255
76500,-0.8196,-0.0148,17.812,255,255,255
76750,-0.9169,-0.0153,17.8943,255,255,255
77000,-1.0179,-0.0158,17.9777,255,255,255
77250,-1.1225,-0.0163,18.0618,255,255,255
77500,-1.2304,-0.0168,18.1461,255,255,255
77750,-1.3411,-0.0172,18.2301,255,255,255
78000,-1.4546,-0.0175,18.3132,255,255,255
78250,-1.5704,-0.0178,18.3951,255,255,255
78500,-1.6883,-0.0179,18.4752,255,255,255
78750,-1.808,-0.018,18.553,255,255,255
79000,-1.9281,-0.018,18.6272,255,255,255
79250,-2.0472,-0.018,18.6968,255,255,255
79500,-2.1647,-0.018,18.762,255,255,255
79750,-2.2801,-0.018,18.8229,255,255,255
80000,-2.393,-0.018,18.8798,255,255,255
80250,-2.5028,-0.018,18.9327,255,255,255
80500,-2.6091,-0.018,18.9818,255,255,255
80750,-2.7114,-0.018,19.0273,255,255,255
81000,-2.8091,-0.018,19.0694,255,255,255
81250,-2.9018,-0.018,19.1081,255,255,255
81500,-2.989,-0.018,19.1437,255,255,255
81750,-3.0702,-0.018,19.1763,255,255,255
82000,-3.1449,-0.018,19.2061,255,255,255
82250,-3.2126,-0.018,19.2332,255,255,255
82500,-3.2728,-0.018,19.2578,255,255,255
82750,-3.325,-0.018,19.28,255,255,255
83000,-3.3687,-0.018,19.3,255,255,255
83250,-3.4035,-0.018,19.3179,255,255,255
83500,-3.4288,-0.018,19.3339,255,255,255
83750,-3.4441,-0.018,19.3483,255,255,255
84000,-3.449,-0.018,19.361,255,255,255
84250,-3.4431,-0.018,19.3738,255,255,255
84500,-3.4267,-0.018,19.3882,255,255,255
84750,-3.4002,-0.018,19.4045,255,255,255
85000,-3.3643,-0.018,19.4227,255,255,255
85250,-3.3194,-0.018,19.443,255,255,255
85500,-3.2659,-0.018,19.4656,255,255,255
85750,-3.2045,-0.018,19.4906,255,255,255
86000,-3.1356,-0.018,19.5182,255,255,255
86250,-3.0597,-0.018,19.5486,255,255,255
86500,-2.9773,-0.018,19.5818,255,255,255
86750,-2.8889,-0.018,19.6181,255,255,255
87000,-2.795,-0.018,19.6576,255,255,255
87250,-2.6962,-0.018,19.7004,255,255,255
87500,-2.5928,-0.018,19.7467,255,255,255
87750,-2.4855,-0.018,19.7967,255,255,255
88000,-2.3747,-0.018,19.8505,255,255,255
88250,-2.2609,-0.018,19.9082,255,255,255
88500,-2.1446,-0.018,19.9701,255,255,255
88750,-2.0264,-0.018,20.0363,255,255,255
89000,-1.9067,-0.018,20.1068,255,255,255
89250,-1.786,-0.018,20.182,255,255,255
89500,-1.6658,-0.018,20.2608,255,255,255
89750,-1.5473,-0.018,20.3421,255,255,255
90000,-1.4308,-0.018,20.4251,255,255,255
90250,-1.3166,-0.018,20.5095,255,255,255
90500,-1.2051,-0.018,20.5947,255,255,255
90750,-1.0965,-0.018,20.6803,255,255,255
91000,-0.9912,-0.018,20.7657,255,255,255
91250,-0.8894,-0.018,20.8503,255,255,255
91500,-0.7914,-0.018,20.9338,255,255,255
91750,-0.6976,-0.018,21.0156,255,255,255
92000,-0.6082,-0.018,21.0952,255,255,255
92250,-0.5235,-0.018,21.172,255,255,255
92500,-0.4439,-0.018,21.2456,255,255,255
92750,-0.3696,-0.018,21.3155,255,255,255
93000,-0.301,-0.018,21.3811,255,255,255
93250,-0.2383,-0.018,21.442,255,255,255
93500,-0.1819,-0.018,21.4976,255,255,255
93750,-0.132,-0.018,21.5475,255,255,255
94000,-0.0889,-0.018,21.591,255,255,255
94250,-0.053,-0.018,21.6278,255,255,255
94500,-0.0246,-0.018,21.6573,255,255,255
94750,-0.0039,-0.018,21.679,255,255,255
95000,0.0087,-0.018,21.6924,255,255,255
95250,0.013,-0.018,21.697,255,255,255
95500,0.013,-0.018,21.697,255,255,255
95750,0.013,-0.018,21.697,255,255,255
96000,0.013,-0.018,21.697,255,255,255
96250,0.013,-0.018,21.697,255,255,255
96500,0.013,-0.018,21.697,255,255,255
96750,0.013,-0.018,21.697,255,255,255
97000,0.013,-0.018,21.697,255,255,255
97250,0.013,-0.018,21.697,255,255,255
97500,0.013,-0.018,21.697,255,255,255
97750,0.013,-0.018,21.697,255,255,255
98000,0.013,-0.018,21.697,255,255,255
98250,0.013,-0.018,21.697,255,255,255
98500,0.013,-0.018,21.697,255,255,255
98750,0.013,-0.018,21.697,255,255,255
99000,0.013,-0.018,21.697,255,255,255
99250,0.013,-0.018,21.697,255,255,255
99500,0.013,-0.018,21.697,255,255,255
99750,0.013,-0.018,21.697,255,255,255
100000,0.013,-0.018,21.697,255,255,255
100250,0.013,-0.018,21.697,255,255,255
100500,0.013,-0.018,21.697,255,255,255
100750,0.013,-0.018,21.697,255,255,255
101000,0.013,-0.018,21.697,255,255,255
101250,0.013,-0.018,21.697,255,255,255
101500,0.013,-0.018,21.697,255,255,255
101750,0.013,-0.018,21.697,255,255,255
102000,0.013,-0.018,21.697,255,255,255
102250,0.013,-0.018,21.697,255,255,255
102500,0.013,-0.018,21.697,255,255,255
102750,0.013,-0.018,21.697,255,255,255
103000,0.013,-0.018,21.697,255,255,255
103250,0.013,-0.018,21.697,255,255,255
103500,0.013,-0.018,21.697,255,255,255
103750,0.013,-0.018,21.697,255,255,255
104000,0.013,-0.018,21.697,255,255,255
104250,0.013,-0.018,21.697,255,255,255
104500,0.013,-0.018,21.697,255,255,255
104750,0.013,-0.018,21.697,255,255,255
105000,0.013,-0.018,21.697,255,255,255
105250,0.013,-0.018,21.697,255,255,255
105500,0.013,-0.018,21.697,255,255,255
105750,0.013,-0.018,21.697,255,255,255
106000,0.013,-0.018,21.697,255,255,255
106250,0.013,-0.018,21.697,255,255,255
106500,0.013,-0.018,21.697,255,255,255
106750,0.013,-0.018,21.697,255,255,255
107000,0.013,-0.018,21.697,255,255,255
107250,0.013,-0.018,21.697,255,255,255
107500,0.013,-0.018,21.697,255,255,255
107750,0.013,-0.018,21.697,255,255,255
108000,0.013,-0.018,21.697,255,255,255
108250,0.013,-0.018,21.697,255,255,255
108500,0.013,-0.018,21.697,255,255,255
108750,0.013,-0.018,21.697,255,255,255
109000,0.013,-0.018,21.697,255,255,255
109250,0.013,-0.018,21.697,255,255,255
109500,0.013,-0.018,21.697,255,255,255
109750,0.013,-0.018,21.697,255,255,255
110000,0.013,-0.018,21.697,255,255,255
110250,0.013,-0.018,21.697,255,255,255
110500,0.013,-0.018,21.697,255,255,255
110750,0.013,-0.018,21.697,255,255,255
111000,0.013,-0.018,21.697,255,255,255
111250,0.013,-0.018,21.697,255,255,255
111500,0.013,-0.018,21.697,255,255,255
111750,0.013,-0.018,21.697,255,255,255
112000,0.013,-0.018,21.697,255,255,255
112250,0.013,-0.018,21.697,255,255,255
112500,0.013,-0.018,21.697,255,255,255
112750,0.013,-0.018,21.697,255,255,255
113000,0.013,-0.018,21.697,255,255,255
113250,0.013,-0.018,21.697,255,255,255
113500,0.013,-0.018,21.697,255,255,255
113750,0.013,-0.018,21.697,255,255,255
114000,0.013,-0.018,21.697,255,255,255
114250,0.013,-0.018,21.697,255,255,255
114500,0.013,-0.018,21.697,255,255,255
114750,0.013,-0.018,21.6938,255,255,255
115000,0.013,-0.018,21.6844,255,255,255
115250,0.013,-0.018,21.6688,255,255,255
115500,0.013,-0.018,21.647,255,255,255
115750,0.013,-0.018,21.6193,255,255,255
116000,0.013,-0.018,21.5856,255,255,255
116250,0.013,-0.018,21.5461,255,255,255
116500,0.013,-0.018,21.5009,255,255,255
116750,0.013,-0.018,21.45,255,255,255
117000,0.013,-0.018,21.3935,255,255,255
117250,0.013,-0.018,21.3316,255,255,255
117500,0.013,-0.018,21.2643,255,255,255
117750,0.013,-0.018,21.1917,255,255,255
118000,0.013,-0.018,21.1138,255,255,255
118250,0.013,-0.018,21.0309,255,255,255
118500,0.013,-0.018,20.9429,255,255,255
118750,0.013,-0.018,20.85,255,255,255
119000,0.013,-0.018,20.7522,255,255,255
119250,0.013,-0.018,20.6497,255,255,255
119500,0.013,-0.018,20.5425,255,255,255
119750,0.013,-0.018,20.4307,255,255,255
120000,0.013,-0.018,20.3144,255,255,255
120250,0.013,-0.018,20.1937,255,255,255
120500,0.013,-0.018,20.0687,255,255,255
120750,0.013,-0.018,19.9394,255,255,255
121000,0.013,-0.018,19.8061,255,255,255
121250,0.013,-0.018,19.6686,255,255,255
121500,0.013,-0.018,19.5272,255,255,255
121750,0.013,-0.018,19.3819,255,255,255
122000,0.013,-0.018,19.2329,255,255,255
122250,0.013,-0.018,19.0801,255,255,255
122500,0.013,-0.018,18.9238,255,255,255
122750,0.013,-0.018,18.7639,255,255,255
