Time [msec],x [m],y [m],z [m],Red,Green,Blue
0,-2.5,5,0,255,255,255
250,-2.5,5,0.0474,255,255,255
500,-2.5,5,0.2195,255,255,255
750,-2.5,5,0.5,255,255,255
1000,-2.5,5,0.8703,255,255,255
1250,-2.5,5,1.3121,255,255,255
1500,-2.5,5,1.8083,255,255,255
1750,-2.5,5,2.3437,255,255,255
2000,-2.5,5,2.9005,255,255,255
2250,-2.5,5,3.4611,255,255,255
2500,-2.5,5,4.0076,255,255,255
2750,-2.5,5,4.5223,255,255,255
3000,-2.5,5,4.9874,255,255,255
3250,-2.5,5,5.3853,255,255,255
3500,-2.5,5,5.6982,255,255,255
3750,-2.5,5,5.9084,255,255,255
4000,-2.5,5,5.998,255,255,255
4250,-2.5,5,6,255,255,255
4500,-2.5,5,6,255,255,255
4750,-2.5,5,6,255,255,255
5000,-2.5,5,6,255,255,255
5250,-2.5,5,6,255,255,255
5500,-2.5,5,6,255,255,255
5750,-2.5,5,6,255,255,255
6000,-2.5,5,6,255,255,255
6250,-2.5015,4.998,6.0097,255,255,255
6500,-2.5074,4.9904,6.0464,255,255,255
6750,-2.5174,4.9774,6.1097,255,255,255
7000,-2.5315,4.959,6.1984,255,255,255
7250,-2.5495,4.9357,6.3115,255,255,255
7500,-2.5711,4.9074,6.4482,255,255,255
7750,-2.5964,4.8745,6.6074,255,255,255
8000,-2.625,4.8372,6.7881,255,255,255
8250,-2.6569,4.7956,6.9893,255,255,255
8500,-2.6919,4.75,7.2101,255,255,255
8750,-2.7298,4.7005,7.4494,255,255,255
9000,-2.7704,4.6474,7.7062,255,255,255
9250,-2.8137,4.5909,7.9796,255,255,255
9500,-2.8593,4.5311,8.2686,255,255,255
9750,-2.9073,4.4683,8.5722,255,255,255
10000,-2.9574,4.4027,8.8893,255,255,255
10250,-3.0094,4.3345,9.2191,255,255,255
10500,-3.0632,4.2638,9.5605,255,255,255
10750,-3.1187,4.191,9.9125,255,255,255
11000,-3.1757,4.1161,10.2741,255,255,255
11250,-3.2339,4.0395,10.6443,255,255,255
11500,-3.2933,3.9612,11.0222,255,255,255
11750,-3.3538,3.8815,11.4068,255,255,255
12000,-3.415,3.8007,11.7969,255,255,255
12250,-3.477,3.7191,12.191,255,255,255
12500,-3.5394,3.6368,12.5881,255,255,255
12750,-3.6021,3.5542,12.9869,255,255,255
13000,-3.665,3.4715,13.3865,255,255,255
13250,-3.7278,3.3889,13.7856,255,255,255
13500,-3.7905,3.3066,14.1831,255,255,255
13750,-3.8527,3.2249,14.5779,255,255,255
14000,-3.9143,3.144,14.9688,255,255,255
14250,-3.9751,3.0642,15.3547,255,255,255
14500,-4.035,2.9856,15.7346,255,255,255
14750,-4.0938,2.9086,16.1072,255,255,255
15000,-4.1513,2.8332,16.4714,255,255,255
15250,-4.2073,2.7599,16.8261,255,255,255
15500,-4.2616,2.6887,17.1701,255,255,255
15750,-4.3141,2.62,17.5024,255,255,255
16000,-4.3645,2.554,17.8217,255,255,255
16250,-4.4128,2.4909,18.1271,255,255,255
16500,-4.4586,2.4309,18.4172,255,255,255
16750,-4.5019,2.3743,18.6911,255,255,255
17000,-4.5424,2.3213,18.9475,255,255,255
17250,-4.58,2.2722,19.1853,255,255,255
17500,-4.6145,2.2271,19.4035,255,255,255
17750,-4.6457,2.1863,19.6008,255,255,255
18000,-4.6735,2.1501,19.7761,255,255,255
18250,-4.6976,2.1186,19.9284,255,255,255
18500,-4.7178,2.0922,20.0564,255,255,255
18750,-4.7341,2.0709,20.1591,255,255,255
19000,-4.7461,2.0552,20.2352,255,255,255
19250,-4.7538,2.0452,20.2838,255,255,255
19500,-4.7569,2.0411,20.3036,255,255,255
19750,-4.757,2.041,20.304,255,255,255
20000,-4.757,2.041,20.304,255,255,255
20250,-4.757,2.041,20.304,255,255,255
20500,-4.757,2.041,20.304,255,255,255
20750,-4.757,2.041,20.304,255,255,255
21000,-4.757,2.041,20.304,255,255,255
21250,-4.757,2.041,20.304,255,255,255
21500,-4.757,2.041,20.304,255,255,255
21750,-4.757,2.041,20.304,255,255,255
22000,-4.757,2.041,20.304,255,255,255
22250,-4.757,2.041,20.304,255,255,255
22500,-4.757,2.041,20.304,255,255,255
22750,-4.757,2.041,20.304,255,255,255
23000,-4.757,2.041,20.304,255,255,255
23250,-4.757,2.041,20.304,255,255,255
23500,-4.757,2.041,20.304,255,255,255
23750,-4.7524,2.0463,20.3008,255,255,255
24000,-4.6958,2.0945,20.2943,255,255,255
24250,-4.5178,2.2356,20.2953,255,255,255
24500,-4.1746,2.5002,20.3126,255,255,255
24750,-3.7068,2.8581,20.3419,255,255,255
25000,-3.1567,3.2804,20.3734,255,255,255
25250,-2.5659,3.7386,20.3974,255,255,255
25500,-1.9764,4.2041,20.4041,255,255,255
25750,-1.4297,4.6484,20.3838,255,255,255
26000,-0.9492,5.0545,20.3333,255,255,255
26250,-0.5201,5.4284,20.2645,255,255,255
26500,-0.1428,5.7667,20.1837,255,255,255
26750,0.1813,6.0654,20.0973,255,255,255
27000,0.451,6.3206,20.0116,255,255,255
27250,0.6652,6.5283,19.9327,255,255,255
27500,0.8226,6.6845,19.8671,255,255,255
27750,0.922,6.7855,19.8209,255,255,255
28000,0.9621,6.8271,19.8005,255,255,255
28250,0.963,6.828,19.8,255,255,255
28500,0.963,6.828,19.8,255,255,255
28750,0.963,6.828,19.8,255,255,255
29000,0.963,6.828,19.8,255,255,255
29250,0.963,6.828,19.8,255,255,255
29500,0.963,6.828,19.8,255,255,255
29750,0.963,6.828,19.8,255,255,255
30000,0.963,6.828,19.8,255,255,255
30250,0.963,6.828,19.8,255,255,255
30500,0.963,6.828,19.8,255,255,255
30750,0.963,6.828,19.8,255,255,255
31000,0.963,6.828,19.8,255,255,255
31250,0.963,6.828,19.8,255,255,255
31500,0.963,6.828,19.8,255,255,255
31750,0.963,6.828,19.8,255,255,255
32000,0.963,6.828,19.8,255,255,255
32250,0.9566,6.8166,19.7973,255,255,255
32500,0.9113,6.773,19.8105,255,255,255
32750,0.7899,6.6975,19.8813,255,255,255
33000,0.5552,6.5909,20.0516,255,255,255
33250,0.1984,6.4546,20.3325,255,255,255
33500,-0.2263,6.2907,20.6651,255,255,255
33750,-0.6854,6.0996,21.013,255,255,255
34000,-1.1464,5.882,21.3404,255,255,255
34250,-1.5768,5.6385,21.6117,255,255,255
34500,-1.9439,5.3696,21.7913,255,255,255
34750,-2.2237,5.0771,21.8541,255,255,255
35000,-2.4276,4.77,21.8203,255,255,255
35250,-2.5728,4.4606,21.7193,255,255,255
35500,-2.6764,4.1611,21.5805,255,255,255
35750,-2.7558,3.8836,21.4334,255,255,255
36000,-2.8245,3.6385,21.3021,255,255,255
36250,-2.8824,3.4322,21.1917,255,255,255
36500,-2.9273,3.2721,21.1062,255,255,255
36750,-2.9571,3.1659,21.0495,255,255,255
37000,-2.9697,3.121,21.0255,255,255,255
37250,-2.97,3.12,21.025,255,255,255
37500,-2.97,3.12,21.025,255,255,255
37750,-2.97,3.12,21.025,255,255,255
38000,-2.97,3.12,21.025,255,255,255
38250,-2.97,3.12,21.025,255,255,255
38500,-2.97,3.12,21.025,255,255,255
38750,-2.97,3.12,21.025,255,255,255
39000,-2.97,3.12,21.025,255,255,255
39250,-2.97,3.12,21.025,255,255,255
39500,-2.97,3.12,21.025,255,255,255
39750,-2.97,3.12,21.025,255,255,255
40000,-2.97,3.12,21.025,255,255,255
40250,-2.97,3.12,21.025,255,255,255
40500,-2.97,3.12,21.025,255,255,255
40750,-2.97,3.12,21.025,255,255,255
41000,-2.97,3.12,21.025,255,255,255
41250,-2.9695,3.1205,21.0272,255,255,255
41500,-2.9673,3.0914,21.0492,255,255,255
41750,-2.9629,2.978,21.1146,255,255,255
42000,-2.9555,2.7251,21.2474,255,255,255
42250,-2.9451,2.3084,21.4638,255,255,255
42500,-2.932,1.7877,21.7542,255,255,255
42750,-2.9163,1.2117,22.1078,255,255,255
43000,-2.8982,0.6283,22.5135,255,255,255
43250,-2.878,0.0803,22.9586,255,255,255
43500,-2.8555,-0.4164,23.423,255,255,255
43750,-2.831,-0.8539,23.8862,255,255,255
44000,-2.8046,-1.224,24.3275,255,255,255
44250,-2.7764,-1.5249,24.7297,255,255,255
44500,-2.7462,-1.7731,25.0933,255,255,255
44750,-2.7143,-1.9843,25.4242,255,255,255
45000,-2.6808,-2.1741,25.7282,255,255,255
45250,-2.6381,-2.3518,26.0069,255,255,255
45500,-2.6102,-2.5316,26.2841,255,255,255
45750,-2.6641,-2.7469,26.6114,255,255,255
46000,-2.8405,-3.0186,27.0213,255,255,255
46250,-3.0982,-3.3287,27.4878,255,255,255
46500,-3.399,-3.6608,27.9868,255,255,255
46750,-3.7054,-3.999,28.495,255,255,255
47000,-3.9797,-4.3273,28.9888,255,255,255
47250,-4.1843,-4.6298,29.4448,255,255,255
47500,-4.2818,-4.8904,29.8394,255,255,255
47750,-4.2541,-5.1014,30.1611,255,255,255
48000,-4.1428,-5.2791,30.434,255,255,255
48250,-3.9876,-5.439,30.6811,255,255,255
48500,-3.8276,-5.5967,30.9248,255,255,255
48750,-3.6843,-5.7602,31.1771,255,255,255
49000,-3.5427,-5.9231,31.4283,255,255,255
49250,-3.4025,-6.0847,31.6773,255,255,255
49500,-3.264,-6.2443,31.9233,255,255,255
49750,-3.1275,-6.4017,32.1657,255,255,255
50000,-2.9933,-6.5563,32.4035,255,255,255
50250,-2.8618,-6.7077,32.6363,255,255,255
50500,-2.7335,-6.8553,32.8634,255,255,255
50750,-2.6089,-6.9988,33.0843,255,255,255
51000,-2.4882,-7.1378,33.2983,255,255,255
51250,-2.3718,-7.2717,33.5046,255,255,255
51500,-2.2602,-7.4003,33.7027,255,255,255
51750,-2.1536,-7.523,33.8918,255,255,255
52000,-2.0525,-7.6394,34.0713,255,255,255
52250,-1.9572,-7.7491,34.2405,255,255,255
52500,-1.8681,-7.8517,34.3988,255,255,255
52750,-1.7855,-7.9468,34.5454,255,255,255
53000,-1.7099,-8.0339,34.6798,255,255,255
53250,-1.6416,-8.1125,34.8013,255,255,255
53500,-1.581,-8.1824,34.9091,255,255,255
53750,-1.5284,-8.2429,35.0026,255,255,255
54000,-1.4843,-8.2938,35.0812,255,255,255
54250,-1.4489,-8.3345,35.1442,255,255,255
54500,-1.4226,-8.3648,35.1909,255,255,255
54750,-1.4059,-8.384,35.2206,255,255,255
55000,-1.3991,-8.3918,35.2327,255,255,255
55250,-1.399,-8.392,35.233,255,255,255
55500,-1.399,-8.392,35.233,255,255,255
55750,-1.399,-8.392,35.233,255,255,255
56000,-1.399,-8.392,35.233,255,255,255
56250,-1.399,-8.392,35.233,255,255,255
56500,-1.399,-8.392,35.233,255,255,255
56750,-1.399,-8.392,35.233,255,255,255
57000,-1.399,-8.392,35.233,255,255,255
57250,-1.399,-8.392,35.233,255,255,255
57500,-1.399,-8.392,35.233,255,255,255
57750,-1.399,-8.392,35.233,255,255,255
58000,-1.399,-8.392,35.233,255,255,255
58250,-1.399,-8.392,35.233,255,255,255
58500,-1.399,-8.392,35.233,255,255,255
58750,-1.399,-8.392,35.233,255,255,255
59000,-1.399,-8.392,35.233,255,255,255
59250,-1.4247,-8.3924,35.2317,255,255,255
59500,-1.5218,-8.3941,35.2269,255,255,255
59750,-1.6883,-8.3969,35.2186,255,255,255
60000,-1.9211,-8.4009,35.207,255,255,255
60250,-2.2171,-8.4059,35.1922,255,255,255
60500,-2.5732,-8.4118,35.1744,255,255,255
60750,-2.9862,-8.4188,35.1537,255,255,255
61000,-3.4468,-8.4265,35.1307,255,255,255
61250,-3.9356,-8.4347,35.1064,255,255,255
61500,-4.4414,-8.4432,35.0812,255,255,255
61750,-4.9532,-8.4519,35.0558,255,255,255
62000,-5.4598,-8.4605,35.0307,255,255,255
62250,-5.9503,-8.4688,35.0064,255,255,255
62500,-6.4135,-8.4767,34.9835,255,255,255
62750,-6.8386,-8.484,34.9625,255,255,255
63000,-7.2143,-8.4904,34.944,255,255,255
63250,-7.5297,-8.4958,34.9284,255,255,255
63500,-7.7738,-8.5,34.9164,255,255,255
63750,-7.9354,-8.5028,34.9084,255,255,255
64000,-8.0035,-8.504,34.9051,255,255,255
64250,-8.005,-8.504,34.905,255,255,255
64500,-8.005,-8.504,34.905,255,255,255
64750,-8.005,-8.504,34.905,255,255,255
65000,-8.005,-8.504,34.905,255,255,255
65250,-8.005,-8.504,34.905,255,255,255
65500,-8.005,-8.504,34.905,255,255,255
65750,-8.005,-8.504,34.905,255,255,255
66000,-8.005,-8.504,34.905,255,255,255
66250,-8.005,-8.504,34.905,255,255,255
66500,-8.005,-8.504,34.905,255,255,255
66750,-8.005,-8.504,34.905,255,255,255
67000,-8.005,-8.504,34.905,255,255,255
67250,-8.005,-8.504,34.905,255,255,255
67500,-8.005,-8.504,34.905,255,255,255
67750,-8.005,-8.504,34.905,255,255,255
68000,-8.005,-8.504,34.905,255,255,255
68250,-8.005,-8.504,34.905,255,255,255
68500,-8.005,-8.504,34.905,255,255,255
68750,-8.005,-8.504,34.905,255,255,255
69000,-8.005,-8.504,34.905,255,255,255
69250,-8.005,-8.504,34.905,255,255,255
69500,-8.005,-8.504,34.905,255,255,255
69750,-8.005,-8.504,34.905,255,255,255
70000,-8.005,-8.504,34.905,255,255,255
70250,-8.005,-8.504,34.905,255,255,255
70500,-8.005,-8.504,34.905,255,255,255
70750,-8.005,-8.504,34.905,255,255,255
71000,-8.005,-8.504,34.905,255,255,255
71250,-8.005,-8.504,34.905,255,255,255
71500,-8.005,-8.504,34.905,255,255,255
71750,-8.005,-8.504,34.905,255,255,255
72000,-8.005,-8.504,34.905,255,255,255
72250,-8.005,-8.504,34.905,255,255,255
72500,-8.005,-8.504,34.905,255,255,255
72750,-8.005,-8.504,34.905,255,255,255
73000,-8.005,-8.504,34.905,255,255,255
73250,-8.005,-8.504,34.905,255,255,255
73500,-8.005,-8.504,34.905,255,255,255
73750,-8.005,-8.504,34.905,255,255,255
74000,-8.005,-8.504,34.905,255,255,255
74250,-8.005,-8.504,34.905,255,255,255
74500,-8.005,-8.504,34.905,255,255,255
74750,-8.005,-8.504,34.905,255,255,255
75000,-8.005,-8.504,34.905,255,255,255
75250,-8.005,-8.504,34.905,255,255,255
75500,-8.005,-8.504,34.905,255,255,255
75750,-8.005,-8.504,34.905,255,255,255
76000,-8.005,-8.504,34.905,255,255,255
76250,-8.005,-8.504,34.905,255,255,255
76500,-8.0029,-8.5027,34.8955,255,255,255
76750,-7.9949,-8.4976,34.8592,255,255,255
77000,-7.981,-8.4888,34.7965,255,255,255
77250,-7.9615,-8.4764,34.7081,255,255,255
77500,-7.9365,-8.4605,34.5949,255,255,255
77750,-7.9062,-8.4413,34.4576,255,255,255
78000,-7.8707,-8.4188,34.2969,255,255,255
78250,-7.8302,-8.3931,34.1136,255,255,255
78500,-7.7849,-8.3643,33.9085,255,255,255
78750,-7.7349,-8.3326,33.6823,255,255,255
79000,-7.6804,-8.298,33.4357,255,255,255
79250,-7.6216,-8.2607,33.1696,255,255,255
79500,-7.5586,-8.2207,32.8846,255,255,255
79750,-7.4917,-8.1782,32.5816,255,255,255
80000,-7.4209,-8.1333,32.2613,255,255,255
80250,-7.3465,-8.086,31.9244,255,255,255
80500,-7.2686,-8.0365,31.5718,255,255,255
80750,-7.1873,-7.9849,31.2041,255,255,255
81000,-7.1029,-7.9313,30.8221,255,255,255
81250,-7.0155,-7.8758,30.4266,255,255,255
81500,-6.9253,-7.8184,30.0184,255,255,255
81750,-6.8325,-7.7594,29.5982,255,255,255
82000,-6.7371,-7.6988,29.1667,255,255,255
82250,-6.6395,-7.6367,28.7247,255,255,255
82500,-6.5396,-7.5733,28.273,255,255,255
82750,-6.4378,-7.5086,27.8123,255,255,255
83000,-6.3342,-7.4427,27.3434,255,255,255
83250,-6.2289,-7.3757,26.8671,255,255,255
83500,-6.1222,-7.3078,26.384,255,255,255
83750,-6.0141,-7.239,25.895,255,255,255
84000,-5.9049,-7.1695,25.4009,255,255,255
84250,-5.7947,-7.0994,24.9022,255,255,255
84500,-5.6836,-7.0287,24.4,255,255,255
84750,-5.572,-6.9576,23.8948,255,255,255
85000,-5.4598,-6.8862,23.3874,255,255,255
85250,-5.3473,-6.8146,22.8787,255,255,255
85500,-5.2347,-6.7428,22.3693,255,255,255
85750,-5.1221,-6.6711,21.86,255,255,255
86000,-5.0097,-6.5994,21.3516,255,255,255
86250,-4.8977,-6.528,20.8448,255,255,255
86500,-4.7862,-6.4569,20.3404,255,255,255
86750,-4.6753,-6.3862,19.8391,255,255,255
87000,-4.5654,-6.316,19.3418,255,255,255
87250,-4.4564,-6.2464,18.8491,255,255,255
87500,-4.3486,-6.1776,18.3618,255,255,255
87750,-4.2422,-6.1096,17.8807,255,255,255
88000,-4.1373,-6.0426,17.4066,255,255,255
88250,-4.0342,-5.9766,16.9401,255,255,255
88500,-3.9328,-5.9118,16.4821,255,255,255
88750,-3.8336,-5.8483,16.0337,255,255,255
89000,-3.737,-5.7865,15.5967,255,255,255
89250,-3.6429,-5.7264,15.1715,255,255,255
89500,-3.5517,-5.6682,14.7588,255,255,255
89750,-3.4633,-5.6118,14.3592,255,255,255
90000,-3.3779,-5.5574,13.9732,255,255,255
90250,-3.2957,-5.505,13.6014,255,255,255
90500,-3.2168,-5.4547,13.2443,255,255,255
90750,-3.1413,-5.4067,12.9027,255,255,255
91000,-3.0693,-5.3609,12.577,255,255,255
91250,-3.001,-5.3175,12.2678,255,255,255
91500,-2.9364,-5.2765,11.9758,255,255,255
91750,-2.8758,-5.238,11.7014,255,255,255
92000,-2.8192,-5.2021,11.4453,255,255,255
92250,-2.7668,-5.1689,11.2081,255,255,255
92500,-2.7187,-5.1384,10.9903,255,255,255
92750,-2.675,-5.1107,10.7925,255,255,255
93000,-2.6359,-5.0859,10.6153,255,255,255
93250,-2.6014,-5.0641,10.4593,255,255,255
93500,-2.5718,-5.0454,10.325,255,255,255
93750,-2.547,-5.0297,10.2131,255,255,255
94000,-2.5274,-5.0173,10.1241,255,255,255
94250,-2.5129,-5.0082,10.0586,255,255,255
94500,-2.5038,-5.0024,10.0171,255,255,255
94750,-2.5001,-5,10.0004,255,255,255
95000,-2.5,-5,10,255,255,255
95250,-2.5,-5,10,255,255,255
95500,-2.5,-5,10,255,255,255
95750,-2.5,-5,10,255,255,255
