Time [msec],x [m],y [m],z [m],Red,Green,Blue
0,-1.5,1.5,0,255,255,255
250,-1.5007,1.4994,0.0211,255,255,255
500,-1.5034,1.4973,0.1001,255,255,255
750,-1.508,1.4936,0.2345,255,255,255
1000,-1.5143,1.4885,0.4205,255,255,255
1250,-1.5223,1.4821,0.6547,255,255,255
1500,-1.5317,1.4744,0.9333,255,255,255
1750,-1.5426,1.4657,1.2529,255,255,255
2000,-1.5548,1.4559,1.6097,255,255,255
2250,-1.568,1.4452,2.0003,255,255,255
2500,-1.5824,1.4337,2.4209,255,255,255
2750,-1.5976,1.4214,2.8682,255,255,255
3000,-1.6136,1.4085,3.3383,255,255,255
3250,-1.6303,1.3951,3.8278,255,255,255
3500,-1.6475,1.3812,4.333,255,255,255
3750,-1.6651,1.367,4.8503,255,255,255
4000,-1.683,1.3525,5.3762,255,255,255
4250,-1.7011,1.3379,5.9071,255,255,255
4500,-1.7193,1.3232,6.4393,255,255,255
4750,-1.7374,1.3086,6.9692,255,255,255
5000,-1.7552,1.2941,7.4934,255,255,255
5250,-1.7728,1.2799,8.0081,255,255,255
5500,-1.79,1.266,8.5098,255,255,255
5750,-1.8065,1.2526,8.9949,255,255,255
6000,-1.8224,1.2397,9.4597,255,255,255
6250,-1.8375,1.2274,9.9008,255,255,255
6500,-1.8517,1.2159,10.3144,255,255,255
6750,-1.8652,1.2049,10.7061,255,255,255
7000,-1.8784,1.1941,11.0905,255,255,255
7250,-1.8915,1.1834,11.4681,255,255,255
7500,-1.9044,1.1728,11.8386,255,255,255
7750,-1.9171,1.1624,12.2019,255,255,255
8000,-1.9297,1.1521,12.558,255,255,255
8250,-1.9421,1.142,12.9067,255,255,255
8500,-1.9543,1.132,13.2478,255,255,255
8750,-1.9663,1.1221,13.5814,255,255,255
9000,-1.9781,1.1124,13.9072,255,255,255
9250,-1.9898,1.1028,14.2251,255,255,255
9500,-2.0014,1.0934,14.5351,255,255,255
9750,-2.0127,1.0841,14.8369,255,255,255
10000,-2.0239,1.075,15.1306,255,255,255
10250,-2.0349,1.066,15.4159,255,255,255
10500,-2.0457,1.0572,15.6927,255,255,255
10750,-2.0564,1.0485,15.961,255,255,255
11000,-2.067,1.0399,16.2206,255,255,255
11250,-2.0773,1.0316,16.4714,255,255,255
11500,-2.0875,1.0233,16.7132,255,255,255
11750,-2.0975,1.0153,16.946,255,255,255
12000,-2.1074,1.0073,17.1697,255,255,255
12250,-2.1172,0.9996,17.3841,255,255,255
12500,-2.1267,0.992,17.589,255,255,255
12750,-2.1361,0.9846,17.7845,255,255,255
13000,-2.1454,0.9773,17.9703,255,255,255
13250,-2.1545,0.9702,18.1464,255,255,255
13500,-2.1634,0.9632,18.3127,255,255,255
13750,-2.1721,0.9565,18.4698,255,255,255
14000,-2.1805,0.9499,18.6177,255,255,255
14250,-2.1886,0.9434,18.7569,255,255,255
14500,-2.1966,0.9371,18.8876,255,255,255
14750,-2.2043,0.931,19.0101,255,255,255
15000,-2.2118,0.925,19.1246,255,255,255
15250,-2.2191,0.9192,19.2314,255,255,255
15500,-2.2262,0.9135,19.3308,255,255,255
15750,-2.2331,0.9079,19.423,255,255,255
16000,-2.2398,0.9024,19.5084,255,255,255
16250,-2.2464,0.8971,19.5872,255,255,255
16500,-2.2528,0.8919,19.6597,255,255,255
16750,-2.259,0.8868,19.7261,255,255,255
17000,-2.2651,0.8818,19.7868,255,255,255
17250,-2.2711,0.8768,19.8419,255,255,255
17500,-2.2769,0.872,19.8918,255,255,255
17750,-2.2826,0.8673,19.9368,255,255,255
18000,-2.2883,0.8627,19.9771,255,255,255
18250,-2.2938,0.8581,20.0129,255,255,255
18500,-2.2992,0.8536,20.0447,255,255,255
18750,-2.3045,0.8492,20.0726,255,255,255
19000,-2.3098,0.8449,20.0969,255,255,255
19250,-2.315,0.8406,20.1178,255,255,255
19500,-2.3201,0.8363,20.1358,255,255,255
19750,-2.3252,0.8321,20.1509,255,255,255
20000,-2.3302,0.828,20.1636,255,255,255
20250,-2.3353,0.8239,20.174,255,255,255
20500,-2.3402,0.8198,20.1825,255,255,255
20750,-2.3452,0.8157,20.1894,255,255,255
21000,-2.3502,0.8117,20.1948,255,255,255
21250,-2.3552,0.8077,20.1991,255,255,255
21500,-2.3602,0.8037,20.2025,255,255,255
21750,-2.3652,0.7997,20.2055,255,255,255
22000,-2.3701,0.7958,20.2084,255,255,255
22250,-2.3751,0.792,20.2113,255,255,255
22500,-2.3801,0.7883,20.2141,255,255,255
22750,-2.385,0.7846,20.2168,255,255,255
23000,-2.3899,0.7811,20.2195,255,255,255
23250,-2.3949,0.7776,20.2221,255,255,255
23500,-2.3998,0.7743,20.2247,255,255,255
23750,-2.4047,0.7711,20.2271,255,255,255
24000,-2.4096,0.7679,20.2295,255,255,255
24250,-2.4145,0.7649,20.2318,255,255,255
24500,-2.4194,0.7621,20.234,255,255,255
24750,-2.4243,0.7593,20.2361,255,255,255
25000,-2.4292,0.7567,20.2381,255,255,255
25250,-2.4341,0.7542,20.24,255,255,255
25500,-2.439,0.7518,20.2418,255,255,255
25750,-2.4439,0.7496,20.2435,255,255,255
26000,-2.4488,0.7476,20.2451,255,255,255
26250,-2.4537,0.7457,20.2465,255,255,255
26500,-2.4586,0.7439,20.2479,255,255,255
26750,-2.4635,0.7423,20.2491,255,255,255
27000,-2.4685,0.7409,20.2502,255,255,255
27250,-2.4734,0.7397,20.2512,255,255,255
27500,-2.4783,0.7386,20.252,255,255,255
27750,-2.4833,0.7377,20.2527,255,255,255
28000,-2.4882,0.737,20.2532,255,255,255
28250,-2.4932,0.7365,20.2536,255,255,255
28500,-2.4982,0.7361,20.2539,255,255,255
28750,-2.5032,0.736,20.254,255,255,255
29000,-2.5082,0.7359,20.2541,255,255,255
29250,-2.5133,0.7355,20.2543,255,255,255
29500,-2.5186,0.7348,20.2548,255,255,255
29750,-2.5239,0.7338,20.2555,255,255,255
30000,-2.5293,0.7326,20.2563,255,255,255
30250,-2.5348,0.7311,20.2574,255,255,255
30500,-2.5404,0.7293,20.2586,255,255,255
30750,-2.5461,0.7273,20.2599,255,255,255
31000,-2.5519,0.725,20.2615,255,255,255
31250,-2.5577,0.7224,20.2632,255,255,255
31500,-2.5636,0.7197,20.2651,255,255,255
31750,-2.5695,0.7167,20.2671,255,255,255
32000,-2.5756,0.7135,20.2693,255,255,255
32250,-2.5817,0.71,20.2717,255,255,255
32500,-2.5878,0.7064,20.2741,255,255,255
32750,-2.594,0.7025,20.2768,255,255,255
33000,-2.6002,0.6985,20.2795,255,255,255
33250,-2.6065,0.6943,20.2824,255,255,255
33500,-2.6128,0.6899,20.2854,255,255,255
33750,-2.6192,0.6853,20.2885,255,255,255
34000,-2.6256,0.6805,20.2917,255,255,255
34250,-2.632,0.6756,20.2951,255,255,255
34500,-2.6385,0.6705,20.2985,255,255,255
34750,-2.6449,0.6653,20.3021,255,255,255
35000,-2.6514,0.66,20.3057,255,255,255
35250,-2.6579,0.6545,20.3094,255,255,255
35500,-2.6645,0.6489,20.3133,255,255,255
35750,-2.671,0.6431,20.3172,255,255,255
36000,-2.6775,0.6373,20.3211,255,255,255
36250,-2.684,0.6313,20.3252,255,255,255
36500,-2.6906,0.6252,20.3293,255,255,255
36750,-2.6971,0.6191,20.3335,255,255,255
37000,-2.7036,0.6129,20.3377,255,255,255
37250,-2.7101,0.6065,20.342,255,255,255
37500,-2.7166,0.6002,20.3464,255,255,255
37750,-2.723,0.5937,20.3508,255,255,255
38000,-2.7295,0.5872,20.3552,255,255,255
38250,-2.7359,0.5806,20.3597,255,255,255
38500,-2.7423,0.574,20.3642,255,255,255
38750,-2.7486,0.5674,20.3687,255,255,255
39000,-2.7549,0.5607,20.3732,255,255,255
39250,-2.7612,0.554,20.3778,255,255,255
39500,-2.7674,0.5472,20.3824,255,255,255
39750,-2.7735,0.5405,20.3869,255,255,255
40000,-2.7796,0.5338,20.3915,255,255,255
40250,-2.7857,0.527,20.3961,255,255,255
40500,-2.7917,0.5203,20.4007,255,255,255
40750,-2.7976,0.5136,20.4052,255,255,255
41000,-2.8035,0.5069,20.4098,255,255,255
41250,-2.8093,0.5002,20.4143,255,255,255
41500,-2.815,0.4936,20.4188,255,255,255
41750,-2.8206,0.487,20.4233,255,255,255
42000,-2.8261,0.4805,20.4277,255,255,255
42250,-2.8316,0.474,20.4322,255,255,255
42500,-2.837,0.4676,20.4365,255,255,255
42750,-2.8422,0.4613,20.4408,255,255,255
43000,-2.8474,0.455,20.4451,255,255,255
43250,-2.8525,0.4488,20.4493,255,255,255
43500,-2.8575,0.4427,20.4534,255,255,255
43750,-2.8623,0.4367,20.4575,255,255,255
44000,-2.8671,0.4308,20.4615,255,255,255
44250,-2.8717,0.4251,20.4654,255,255,255
44500,-2.8762,0.4194,20.4693,255,255,255
44750,-2.8806,0.4139,20.473,255,255,255
45000,-2.8849,0.4085,20.4767,255,255,255
45250,-2.8891,0.4032,20.4803,255,255,255
45500,-2.8931,0.3981,20.4838,255,255,255
45750,-2.8969,0.3931,20.4872,255,255,255
46000,-2.9007,0.3883,20.4904,255,255,255
46250,-2.9042,0.3837,20.4936,255,255,255
46500,-2.9077,0.3792,20.4966,255,255,255
46750,-2.911,0.3749,20.4995,255,255,255
47000,-2.9141,0.3708,20.5023,255,255,255
47250,-2.917,0.3669,20.505,255,255,255
47500,-2.9199,0.3632,20.5075,255,255,255
47750,-2.9225,0.3597,20.5099,255,255,255
48000,-2.925,0.3564,20.5121,255,255,255
48250,-2.9273,0.3533,20.5142,255,255,255
48500,-2.9294,0.3505,20.5162,255,255,255
48750,-2.9313,0.3479,20.5179,255,255,255
49000,-2.9331,0.3455,20.5195,255,255,255
49250,-2.9346,0.3434,20.521,255,255,255
49500,-2.936,0.3415,20.5223,255,255,255
49750,-2.9372,0.3399,20.5234,255,255,255
50000,-2.9382,0.3385,20.5243,255,255,255
50250,-2.9389,0.3375,20.525,255,255,255
50500,-2.9395,0.3367,20.5255,255,255,255
50750,-2.9399,0.3362,20.5259,255,255,255
51000,-2.94,0.336,20.526,255,255,255
51250,-2.94,0.336,20.526,255,255,255
51500,-2.94,0.336,20.526,255,255,255
51750,-2.94,0.336,20.526,255,255,255
52000,-2.94,0.336,20.526,255,255,255
52250,-2.94,0.336,20.526,255,255,255
52500,-2.94,0.336,20.526,255,255,255
52750,-2.94,0.336,20.526,255,255,255
53000,-2.94,0.336,20.526,255,255,255
53250,-2.94,0.336,20.526,255,255,255
53500,-2.94,0.336,20.526,255,255,255
53750,-2.94,0.336,20.526,255,255,255
54000,-2.94,0.336,20.526,255,255,255
54250,-2.94,0.336,20.4501,255,255,255
54500,-2.94,0.336,20.2203,255,255,255
54750,-2.94,0.336,19.9441,255,255,255
55000,-2.9372,0.3383,19.7055,255,255,255
55250,-2.922,0.3507,19.4761,255,255,255
55500,-2.8857,0.38,19.2059,255,255,255
55750,-2.827,0.4274,18.8564,255,255,255
56000,-2.7563,0.4846,18.4375,255,255,255
56250,-2.6774,0.5484,17.9699,255,255,255
56500,-2.5937,0.6162,17.4742,255,255,255
56750,-2.5086,0.685,16.9709,255,255,255
57000,-2.4255,0.7521,16.4806,255,255,255
57250,-2.3448,0.8172,16.0053,255,255,255
57500,-2.2629,0.8833,15.5214,255,255,255
57750,-2.1801,0.9502,15.0321,255,255,255
58000,-2.0971,1.0172,14.5409,255,255,255
58250,-2.0145,1.084,14.0515,255,255,255
58500,-1.933,1.15,13.5677,255,255,255
58750,-1.853,1.2147,13.0929,255,255,255
59000,-1.7752,1.2777,12.631,255,255,255
59250,-1.7002,1.3385,12.1856,255,255,255
59500,-1.6286,1.3965,11.7602,255,255,255
59750,-1.5666,1.4467,11.4001,255,255,255
60000,-1.5244,1.4804,11.1424,255,255,255
60250,-1.5019,1.4984,10.9154,255,255,255
60500,-1.4959,1.5035,10.6641,255,255,255
60750,-1.4974,1.5022,10.4048,255,255,255
61000,-1.4999,1.5001,10.1623,255,255,255
61250,-1.5,1.5,9.9624,255,255,255
61500,-1.5,1.5,9.8084,255,255,255
61750,-1.5,1.5,9.6841,255,255,255
62000,-1.5,1.5,9.573,255,255,255
62250,-1.5,1.5,9.4587,255,255,255
62500,-1.5,1.5,9.334,255,255,255
62750,-1.5,1.5,9.209,255,255,255
63000,-1.5,1.5,9.084,255,255,255
63250,-1.5,1.5,8.959,255,255,255
63500,-1.5,1.5,8.834,255,255,255
63750,-1.5,1.5,8.709,255,255,255
64000,-1.5,1.5,8.584,255,255,255
64250,-1.5,1.5,8.459,255,255,255
64500,-1.5,1.5,8.334,255,255,255
64750,-1.5,1.5,8.209,255,255,255
65000,-1.5,1.5,8.084,255,255,255
65250,-1.5,1.5,7.959,255,255,255
65500,-1.5,1.5,7.834,255,255,255
65750,-1.5,1.5,7.709,255,255,255
66000,-1.5,1.5,7.584,255,255,255
66250,-1.5,1.5,7.459,255,255,255
66500,-1.5,1.5,7.334,255,255,255
66750,-1.5,1.5,7.209,255,255,255
67000,-1.5,1.5,7.084,255,255,255
67250,-1.5,1.5,6.959,255,255,255
67500,-1.5,1.5,6.834,255,255,255
67750,-1.5,1.5,6.709,255,255,255
68000,-1.5,1.5,6.584,255,255,255
68250,-1.5,1.5,6.459,255,255,255
68500,-1.5,1.5,6.334,255,255,255
68750,-1.5,1.5,6.209,255,255,255
69000,-1.5,1.5,6.084,255,255,255
69250,-1.5,1.5,5.959,255,255,255
69500,-1.5,1.5,5.834,255,255,255
69750,-1.5,1.5,5.709,255,255,255
70000,-1.5,1.5,5.584,255,255,255
70250,-1.5,1.5,5.459,255,255,255
70500,-1.5,1.5,5.334,255,255,255
70750,-1.5,1.5,5.209,255,255,255
71000,-1.5,1.5,5.084,255,255,255
71250,-1.5,1.5,4.959,255,255,255
71500,-1.5,1.5,4.834,255,255,255
71750,-1.5,1.5,4.709,255,255,255
72000,-1.5,1.5,4.584,255,255,255
72250,-1.5,1.5,4.459,255,255,255
72500,-1.5,1.5,4.334,255,255,255
72750,-1.5,1.5,4.209,255,255,255
73000,-1.5,1.5,4.084,255,255,255
73250,-1.5,1.5,3.959,255,255,255
73500,-1.5,1.5,3.834,255,255,255
73750,-1.5,1.5,3.709,255,255,255
74000,-1.5,1.5,3.584,255,255,255
74250,-1.5,1.5,3.459,255,255,255
74500,-1.5,1.5,3.334,255,255,255
74750,-1.5,1.5,3.209,255,255,255
75000,-1.5,1.5,3.084,255,255,255
75250,-1.5,1.5,2.959,255,255,255
75500,-1.5,1.5,2.834,255,255,255
75750,-1.5,1.5,2.709,255,255,255
76000,-1.5,1.5,2.584,255,255,255
76250,-1.5,1.5,2.459,255,255,255
76500,-1.5,1.5,2.334,255,255,255
76750,-1.5,1.5,2.209,255,255,255
77000,-1.5,1.5,2.084,255,255,255
77250,-1.5,1.5,1.959,255,255,255
77500,-1.5,1.5,1.834,255,255,255
77750,-1.5,1.5,1.709,255,255,255
78000,-1.5,1.5,1.584,255,255,255
78250,-1.5,1.5,1.458,255,255,255
78500,-1.5,1.5,1.333,255,255,255
78750,-1.5,1.5,1.208,255,255,255
79000,-1.5,1.5,1.083,255,255,255
79250,-1.5,1.5,0.958,255,255,255
79500,-1.5,1.5,0.833,255,255,255
79750,-1.5,1.5,0.708,255,255,255
80000,-1.5,1.5,0.583,255,255,255
80250,-1.5,1.5,0.4482,255,255,255
80500,-1.5,1.5,0.299,255,255,255
80750,-1.5,1.5,0.1588,255,255,255
81000,-1.5,1.5,0.0515,255,255,255
81250,-1.5,1.5,0.0012,255,255,255
81500,-1.5,1.5,0,255,255,255
81750,-1.5,1.5,0,255,255,255
82000,-1.5,1.5,0,255,255,255
82250,-1.5,1.5,0,255,255,255
82500,-1.5,1.5,0,255,255,255
82750,-1.5,1.5,0,255,255,255
83000,-1.5,1.5,0,255,255,255
83250,-1.5,1.5,0,255,255,255
83500,-1.5,1.5,0,255,255,255
83750,-1.5,1.5,0,255,255,255
84000,-1.5,1.5,0,255,255,255
84250,-1.5,1.5,0,255,255,255
84500,-1.5,1.5,0,255,255,255
84750,-1.5,1.5,0,255,255,255
85000,-1.5,1.5,0,255,255,255
85250,-1.5,1.5,0,255,255,255
85500,-1.5,1.5,0,255,255,255
85750,-1.5,1.5,0,255,255,255
86000,-1.5,1.5,0,255,255,255
86250,-1.5,1.5,0,255,255,255
86500,-1.5,1.5,0,255,255,255
86750,-1.5,1.5,0,255,255,255
87000,-1.5,1.5,0,255,255,255
87250,-1.5,1.5,0,255,255,255
87500,-1.5,1.5,0,255,255,255
87750,-1.5,1.5,0,255,255,255
88000,-1.5,1.5,0,255,255,255
88250,-1.5,1.5,0,255,255,255
88500,-1.5,1.5,0,255,255,255
88750,-1.5,1.5,0,255,255,255
89000,-1.5,1.5,0,255,255,255
89250,-1.5,1.5,0,255,255,255
89500,-1.5,1.5,0,255,255,255
89750,-1.5,1.5,0,255,255,255
90000,-1.5,1.5,0,255,255,255
90250,-1.5,1.5,0,255,255,255
90500,-1.5,1.5,0,255,255,255
90750,-1.5,1.5,0,255,255,255
91000,-1.5,1.5,0,255,255,255
91250,-1.5,1.5,0,255,255,255
91500,-1.5,1.5,0,255,255,255
91750,-1.5,1.5,0,255,255,255
92000,-1.5,1.5,0,255,255,255
92250,-1.5,1.5,0,255,255,255
92500,-1.5,1.5,0,255,255,255
92750,-1.5,1.5,0,255,255,255
93000,-1.5,1.5,0,255,255,255
93250,-1.5,1.5,0,255,255,255
93500,-1.5,1.5,0,255,255,255
93750,-1.5,1.5,0,255,255,255
94000,-1.5,1.5,0,255,255,255
94250,-1.5,1.5,0,255,255,255
94500,-1.5,1.5,0,255,255,255
94750,-1.5,1.5,0,255,255,255
95000,-1.5,1.5,0,255,255,255
95250,-1.5,1.5,0,255,255,255
95500,-1.5,1.5,0,255,255,255
95750,-1.5,1.5,0,255,255,255
96000,-1.5,1.5,0,255,255,255
96250,-1.5,1.5,0,255,255,255
96500,-1.5,1.5,0,255,255,255
96750,-1.5,1.5,0,255,255,255
97000,-1.5,1.5,0,255,255,255
97250,-1.5,1.5,0,255,255,255
97500,-1.5,1.5,0,255,255,255
97750,-1.5,1.5,0,255,255,255
98000,-1.5,1.5,0,255,255,255
98250,-1.5,1.5,0,255,255,255
98500,-1.5,1.5,0,255,255,255
98750,-1.5,1.5,0,255,255,255
99000,-1.5,1.5,0,255,255,255
99250,-1.5,1.5,0,255,255,255
99500,-1.5,1.5,0,255,255,255
99750,-1.5,1.5,0,255,255,255
100000,-1.5,1.5,0,255,255,255
100250,-1.5,1.5,0,255,255,255
100500,-1.5,1.5,0,255,255,255
100750,-1.5,1.5,0,255,255,255
101000,-1.5,1.5,0,255,255,255
101250,-1.5,1.5,0,255,255,255
101500,-1.5,1.5,0,255,255,255
101750,-1.5,1.5,0,255,255,255
102000,-1.5,1.5,0,255,255,255
102250,-1.5,1.5,0,255,255,255
102500,-1.5,1.5,0,255,255,255
102750,-1.5,1.5,0,255,255,255
103000,-1.5,1.5,0,255,255,255
103250,-1.5,1.5,0,255,255,255
103500,-1.5,1.5,0,255,255,255
103750,-1.5,1.5,0,255,255,255
104000,-1.5,1.5,0,255,255,255
