Time [msec],x [m],y [m],z [m],Red,Green,Blue
0,-7.5,-4.5,0,255,255,255
250,-7.4957,-4.497,0.0239,255,255,255
500,-7.4796,-4.4858,0.1135,255,255,255
750,-7.4523,-4.4668,0.2659,255,255,255
1000,-7.4145,-4.4404,0.4768,255,255,255
1250,-7.3669,-4.4072,0.7423,255,255,255
1500,-7.3103,-4.3677,1.0582,255,255,255
1750,-7.2454,-4.3225,1.4205,255,255,255
2000,-7.1728,-4.2719,1.8252,255,255,255
2250,-7.0935,-4.2166,2.268,255,255,255
2500,-7.008,-4.157,2.745,255,255,255
2750,-6.9171,-4.0936,3.2521,255,255,255
3000,-6.8215,-4.0271,3.7852,255,255,255
3250,-6.722,-3.9578,4.3403,255,255,255
3500,-6.6194,-3.8862,4.9132,255,255,255
3750,-6.5142,-3.813,5.4998,255,255,255
4000,-6.4073,-3.7385,6.0962,255,255,255
4250,-6.2994,-3.6634,6.6982,255,255,255
4500,-6.1913,-3.5881,7.3018,255,255,255
4750,-6.0835,-3.5131,7.9029,255,255,255
5000,-5.977,-3.439,8.4973,255,255,255
5250,-5.8724,-3.3662,9.0811,255,255,255
5500,-5.7704,-3.2953,9.6502,255,255,255
5750,-5.6718,-3.2267,10.2004,255,255,255
6000,-5.5773,-3.161,10.7278,255,255,255
6250,-5.4876,-3.0988,11.2281,255,255,255
6500,-5.4035,-3.0404,11.6975,255,255,255
6750,-5.324,-2.9853,12.1418,255,255,255
7000,-5.2461,-2.9316,12.5779,255,255,255
7250,-5.1697,-2.8794,13.0061,255,255,255
7500,-5.095,-2.8286,13.4261,255,255,255
7750,-5.022,-2.7792,13.838,255,255,255
8000,-4.9506,-2.7314,14.2415,255,255,255
8250,-4.8809,-2.685,14.6365,255,255,255
8500,-4.8129,-2.6401,15.0228,255,255,255
8750,-4.7467,-2.5968,15.4005,255,255,255
9000,-4.6822,-2.555,15.7692,255,255,255
9250,-4.6196,-2.5149,16.1289,255,255,255
9500,-4.5587,-2.4763,16.4794,255,255,255
9750,-4.4997,-2.4394,16.8207,255,255,255
10000,-4.4426,-2.4041,17.1525,255,255,255
10250,-4.3874,-2.3705,17.4747,255,255,255
10500,-4.3341,-2.3386,17.7873,255,255,255
10750,-4.2827,-2.3084,18.09,255,255,255
11000,-4.2334,-2.2799,18.3828,255,255,255
11250,-4.186,-2.2533,18.6654,255,255,255
11500,-4.1406,-2.2283,18.9378,255,255,255
11750,-4.0973,-2.2052,19.1999,255,255,255
12000,-4.0561,-2.184,19.4515,255,255,255
12250,-4.0169,-2.1645,19.6924,255,255,255
12500,-3.9799,-2.147,19.9225,255,255,255
12750,-3.9451,-2.1313,20.1418,255,255,255
13000,-3.9124,-2.1176,20.35,255,255,255
13250,-3.8819,-2.1058,20.547,255,255,255
13500,-3.8536,-2.0959,20.7329,255,255,255
13750,-3.8275,-2.0879,20.9082,255,255,255
14000,-3.8034,-2.0817,21.0732,255,255,255
14250,-3.7813,-2.0773,21.2281,255,255,255
14500,-3.7611,-2.0746,21.3734,255,255,255
14750,-3.7428,-2.0736,21.5093,255,255,255
15000,-3.7264,-2.0741,21.6361,255,255,255
15250,-3.7116,-2.0762,21.7541,255,255,255
15500,-3.6986,-2.0798,21.8636,255,255,255
15750,-3.6872,-2.0848,21.965,255,255,255
16000,-3.6773,-2.0912,22.0586,255,255,255
16250,-3.669,-2.0989,22.1446,255,255,255
16500,-3.662,-2.1079,22.2233,255,255,255
16750,-3.6565,-2.1181,22.2952,255,255,255
17000,-3.6522,-2.1294,22.3604,255,255,255
17250,-3.6492,-2.1419,22.4194,255,255,255
17500,-3.6473,-2.1554,22.4723,255,255,255
17750,-3.6466,-2.1699,22.5196,255,255,255
18000,-3.6469,-2.1854,22.5614,255,255,255
18250,-3.6482,-2.2017,22.5983,255,255,255
18500,-3.6505,-2.2189,22.6303,255,255,255
18750,-3.6536,-2.2369,22.6579,255,255,255
19000,-3.6575,-2.2556,22.6814,255,255,255
19250,-3.6621,-2.2749,22.701,255,255,255
19500,-3.6674,-2.2949,22.7171,255,255,255
19750,-3.6734,-2.3154,22.73,255,255,255
20000,-3.6798,-2.3364,22.74,255,255,255
20250,-3.6868,-2.3579,22.7474,255,255,255
20500,-3.6941,-2.3798,22.7525,255,255,255
20750,-3.7019,-2.402,22.7556,255,255,255
21000,-3.7099,-2.4245,22.7571,255,255,255
21250,-3.7182,-2.4472,22.7572,255,255,255
21500,-3.7266,-2.4701,22.7562,255,255,255
21750,-3.7351,-2.4931,22.7548,255,255,255
22000,-3.7437,-2.5161,22.7534,255,255,255
22250,-3.7524,-2.539,22.752,255,255,255
22500,-3.7611,-2.5616,22.7507,255,255,255
22750,-3.7699,-2.5841,22.7496,255,255,255
23000,-3.7787,-2.6062,22.7484,255,255,255
23250,-3.7876,-2.6279,22.7474,255,255,255
23500,-3.7966,-2.6491,22.7464,255,255,255
23750,-3.8055,-2.6699,22.7456,255,255,255
24000,-3.8145,-2.69,22.7448,255,255,255
24250,-3.8235,-2.7094,22.7441,255,255,255
24500,-3.8325,-2.7281,22.7435,255,255,255
24750,-3.8415,-2.746,22.743,255,255,255
25000,-3.8505,-2.763,22.7426,255,255,255
25250,-3.8595,-2.7791,22.7424,255,255,255
25500,-3.8685,-2.7941,22.7422,255,255,255
25750,-3.8774,-2.8081,22.7421,255,255,255
26000,-3.8864,-2.8209,22.7421,255,255,255
26250,-3.8953,-2.8324,22.7423,255,255,255
26500,-3.9041,-2.8426,22.7426,255,255,255
26750,-3.9129,-2.8515,22.743,255,255,255
27000,-3.9217,-2.8589,22.7435,255,255,255
27250,-3.9304,-2.8648,22.7441,255,255,255
27500,-3.939,-2.8691,22.7449,255,255,255
27750,-3.9476,-2.8717,22.7458,255,255,255
28000,-3.9561,-2.8732,22.7469,255,255,255
28250,-3.9646,-2.8747,22.7481,255,255,255
28500,-3.9732,-2.8761,22.7494,255,255,255
28750,-3.9817,-2.8777,22.7509,255,255,255
29000,-3.9903,-2.8794,22.7524,255,255,255
29250,-3.9989,-2.8814,22.754,255,255,255
29500,-4.0076,-2.8836,22.7556,255,255,255
29750,-4.0162,-2.8861,22.7573,255,255,255
30000,-4.0249,-2.8891,22.759,255,255,255
30250,-4.0336,-2.8926,22.7607,255,255,255
30500,-4.0423,-2.8965,22.7623,255,255,255
30750,-4.051,-2.9011,22.7639,255,255,255
31000,-4.0598,-2.9063,22.7654,255,255,255
31250,-4.0685,-2.9123,22.7668,255,255,255
31500,-4.0773,-2.919,22.7681,255,255,255
31750,-4.0861,-2.9266,22.7693,255,255,255
32000,-4.0949,-2.9351,22.7703,255,255,255
32250,-4.1037,-2.9446,22.7712,255,255,255
32500,-4.1126,-2.9551,22.7719,255,255,255
32750,-4.1214,-2.9667,22.7723,255,255,255
33000,-4.1303,-2.9795,22.7725,255,255,255
33250,-4.1391,-2.9935,22.7725,255,255,255
33500,-4.148,-3.0088,22.7722,255,255,255
33750,-4.1569,-3.0254,22.7715,255,255,255
34000,-4.1658,-3.0435,22.7706,255,255,255
34250,-4.1748,-3.063,22.7694,255,255,255
34500,-4.1837,-3.0841,22.7677,255,255,255
34750,-4.1926,-3.1068,22.7658,255,255,255
35000,-4.2016,-3.1311,22.7634,255,255,255
35250,-4.2106,-3.1572,22.7606,255,255,255
35500,-4.2195,-3.1851,22.7573,255,255,255
35750,-4.2285,-3.2148,22.7537,255,255,255
36000,-4.2375,-3.2465,22.7495,255,255,255
36250,-4.2465,-3.2801,22.7448,255,255,255
36500,-4.2555,-3.3155,22.7395,255,255,255
36750,-4.2644,-3.3521,22.7333,255,255,255
37000,-4.2734,-3.3897,22.7261,255,255,255
37250,-4.2823,-3.4283,22.7182,255,255,255
37500,-4.2911,-3.4678,22.7096,255,255,255
37750,-4.3,-3.5082,22.7003,255,255,255
38000,-4.3088,-3.5494,22.6905,255,255,255
38250,-4.3176,-3.5913,22.6801,255,255,255
38500,-4.3264,-3.6339,22.6693,255,255,255
38750,-4.3351,-3.677,22.6581,255,255,255
39000,-4.3439,-3.7206,22.6466,255,255,255
39250,-4.3526,-3.7646,22.6349,255,255,255
39500,-4.3614,-3.809,22.623,255,255,255
39750,-4.3701,-3.8536,22.611,255,255,255
40000,-4.3788,-3.8985,22.599,255,255,255
40250,-4.3875,-3.9434,22.587,255,255,255
40500,-4.3963,-3.9885,22.5751,255,255,255
40750,-4.405,-4.0335,22.5635,255,255,255
41000,-4.4137,-4.0784,22.552,255,255,255
41250,-4.4224,-4.1232,22.5409,255,255,255
41500,-4.4312,-4.1678,22.5302,255,255,255
41750,-4.4399,-4.212,22.52,255,255,255
42000,-4.4487,-4.2559,22.5103,255,255,255
42250,-4.4575,-4.2993,22.5012,255,255,255
42500,-4.4663,-4.3422,22.4927,255,255,255
42750,-4.4751,-4.3845,22.485,255,255,255
43000,-4.4839,-4.4262,22.4781,255,255,255
43250,-4.4928,-4.4671,22.4721,255,255,255
43500,-4.5017,-4.5072,22.467,255,255,255
43750,-4.5106,-4.5464,22.463,255,255,255
44000,-4.5195,-4.5846,22.46,255,255,255
44250,-4.5285,-4.6219,22.4582,255,255,255
44500,-4.5377,-4.658,22.4576,255,255,255
44750,-4.5474,-4.6933,22.4584,255,255,255
45000,-4.5576,-4.7276,22.4604,255,255,255
45250,-4.5682,-4.7608,22.4634,255,255,255
45500,-4.5791,-4.793,22.4675,255,255,255
45750,-4.5903,-4.8241,22.4725,255,255,255
46000,-4.6017,-4.8542,22.4783,255,255,255
46250,-4.6132,-4.883,22.4848,255,255,255
46500,-4.6247,-4.9108,22.4919,255,255,255
46750,-4.6363,-4.9373,22.4995,255,255,255
47000,-4.6477,-4.9625,22.5075,255,255,255
47250,-4.659,-4.9865,22.5158,255,255,255
47500,-4.6701,-5.0093,22.5244,255,255,255
47750,-4.6809,-5.0306,22.533,255,255,255
48000,-4.6914,-5.0507,22.5416,255,255,255
48250,-4.7014,-5.0693,22.5502,255,255,255
48500,-4.7109,-5.0865,22.5585,255,255,255
48750,-4.7199,-5.1022,22.5665,255,255,255
49000,-4.7282,-5.1165,22.5742,255,255,255
49250,-4.7359,-5.1292,22.5813,255,255,255
49500,-4.7427,-5.1404,22.5879,255,255,255
49750,-4.7488,-5.1499,22.5937,255,255,255
50000,-4.7539,-5.1579,22.5988,255,255,255
50250,-4.758,-5.1642,22.6029,255,255,255
50500,-4.7612,-5.1689,22.6061,255,255,255
50750,-4.7632,-5.1718,22.6081,255,255,255
51000,-4.764,-5.173,22.609,255,255,255
51250,-4.764,-5.173,22.609,255,255,255
51500,-4.764,-5.173,22.609,255,255,255
51750,-4.764,-5.173,22.609,255,255,255
52000,-4.764,-5.173,22.609,255,255,255
52250,-4.764,-5.173,22.609,255,255,255
52500,-4.764,-5.173,22.609,255,255,255
52750,-4.764,-5.173,22.609,255,255,255
53000,-4.764,-5.173,22.609,255,255,255
53250,-4.764,-5.173,22.609,255,255,255
53500,-4.764,-5.173,22.609,255,255,255
53750,-4.764,-5.173,22.609,255,255,255
54000,-4.764,-5.173,22.609,255,255,255
54250,-4.764,-5.173,22.5331,255,255,255
54500,-4.764,-5.173,22.3033,255,255,255
54750,-4.764,-5.173,22.0271,255,255,255
55000,-4.7687,-5.1719,21.7865,255,255,255
55250,-4.7935,-5.1658,21.5502,255,255,255
55500,-4.8512,-5.1514,21.2698,255,255,255
55750,-4.9437,-5.1285,20.9096,255,255,255
56000,-5.0541,-5.1014,20.482,255,255,255
56250,-5.1768,-5.0715,20.007,255,255,255
56500,-5.3066,-5.0398,19.5047,255,255,255
56750,-5.4381,-5.0077,18.995,255,255,255
57000,-5.5662,-4.9762,18.4979,255,255,255
57250,-5.6893,-4.9456,18.0189,255,255,255
57500,-5.8123,-4.9151,17.5404,255,255,255
57750,-5.9353,-4.8846,17.0619,255,255,255
58000,-6.0583,-4.8541,16.5834,255,255,255
58250,-6.1813,-4.8236,16.1049,255,255,255
58500,-6.3043,-4.7931,15.6264,255,255,255
58750,-6.4273,-4.7626,15.1479,255,255,255
59000,-6.5503,-4.7321,14.6694,255,255,255
59250,-6.6733,-4.7016,14.1909,255,255,255
59500,-6.8015,-4.6713,13.7073,255,255,255
59750,-6.9297,-4.6399,13.2106,255,255,255
60000,-7.0572,-4.6087,12.7161,255,255,255
60250,-7.1805,-4.5787,12.2381,255,255,255
60500,-7.2957,-4.5505,11.7911,255,255,255
60750,-7.3902,-4.5273,11.4073,255,255,255
61000,-7.45,-4.5125,11.1088,255,255,255
61250,-7.4829,-4.5043,10.8651,255,255,255
61500,-7.4969,-4.5008,10.6448,255,255,255
61750,-7.5,-4.5,10.4164,255,255,255
62000,-7.5,-4.5,10.1841,255,255,255
62250,-7.5,-4.5,9.9938,255,255,255
62500,-7.5,-4.5,9.8367,255,255,255
62750,-7.5,-4.5,9.7021,255,255,255
63000,-7.5,-4.5,9.5796,255,255,255
63250,-7.5,-4.5,9.4589,255,255,255
63500,-7.5,-4.5,9.334,255,255,255
63750,-7.5,-4.5,9.209,255,255,255
64000,-7.5,-4.5,9.084,255,255,255
64250,-7.5,-4.5,8.959,255,255,255
64500,-7.5,-4.5,8.834,255,255,255
64750,-7.5,-4.5,8.709,255,255,255
65000,-7.5,-4.5,8.584,255,255,255
65250,-7.5,-4.5,8.459,255,255,255
65500,-7.5,-4.5,8.334,255,255,255
65750,-7.5,-4.5,8.208,255,255,255
66000,-7.5,-4.5,8.083,255,255,255
66250,-7.5,-4.5,7.958,255,255,255
66500,-7.5,-4.5,7.833,255,255,255
66750,-7.5,-4.5,7.708,255,255,255
67000,-7.5,-4.5,7.583,255,255,255
67250,-7.5,-4.5,7.458,255,255,255
67500,-7.5,-4.5,7.333,255,255,255
67750,-7.5,-4.5,7.208,255,255,255
68000,-7.5,-4.5,7.083,255,255,255
68250,-7.5,-4.5,6.958,255,255,255
68500,-7.5,-4.5,6.833,255,255,255
68750,-7.5,-4.5,6.708,255,255,255
69000,-7.5,-4.5,6.583,255,255,255
69250,-7.5,-4.5,6.458,255,255,255
69500,-7.5,-4.5,6.333,255,255,255
69750,-7.5,-4.5,6.208,255,255,255
70000,-7.5,-4.5,6.083,255,255,255
70250,-7.5,-4.5,5.958,255,255,255
70500,-7.5,-4.5,5.833,255,255,255
70750,-7.5,-4.5,5.708,255,255,255
71000,-7.5,-4.5,5.583,255,255,255
71250,-7.5,-4.5,5.458,255,255,255
71500,-7.5,-4.5,5.333,255,255,255
71750,-7.5,-4.5,5.208,255,255,255
72000,-7.5,-4.5,5.083,255,255,255
72250,-7.5,-4.5,4.958,255,255,255
72500,-7.5,-4.5,4.834,255,255,255
72750,-7.5,-4.5,4.709,255,255,255
73000,-7.5,-4.5,4.584,255,255,255
73250,-7.5,-4.5,4.459,255,255,255
73500,-7.5,-4.5,4.334,255,255,255
73750,-7.5,-4.5,4.209,255,255,255
74000,-7.5,-4.5,4.084,255,255,255
74250,-7.5,-4.5,3.959,255,255,255
74500,-7.5,-4.5,3.834,255,255,255
74750,-7.5,-4.5,3.709,255,255,255
75000,-7.5,-4.5,3.584,255,255,255
75250,-7.5,-4.5,3.459,255,255,255
75500,-7.5,-4.5,3.334,255,255,255
75750,-7.5,-4.5,3.209,255,255,255
76000,-7.5,-4.5,3.084,255,255,255
76250,-7.5,-4.5,2.959,255,255,255
76500,-7.5,-4.5,2.834,255,255,255
76750,-7.5,-4.5,2.709,255,255,255
77000,-7.5,-4.5,2.584,255,255,255
77250,-7.5,-4.5,2.459,255,255,255
77500,-7.5,-4.5,2.334,255,255,255
77750,-7.5,-4.5,2.209,255,255,255
78000,-7.5,-4.5,2.084,255,255,255
78250,-7.5,-4.5,1.959,255,255,255
78500,-7.5,-4.5,1.834,255,255,255
78750,-7.5,-4.5,1.709,255,255,255
79000,-7.5,-4.5,1.584,255,255,255
79250,-7.5,-4.5,1.459,255,255,255
79500,-7.5,-4.5,1.334,255,255,255
79750,-7.5,-4.5,1.209,255,255,255
80000,-7.5,-4.5,1.084,255,255,255
80250,-7.5,-4.5,0.959,255,255,255
80500,-7.5,-4.5,0.834,255,255,255
80750,-7.5,-4.5,0.709,255,255,255
81000,-7.5,-4.5,0.584,255,255,255
81250,-7.5,-4.5,0.4482,255,255,255
81500,-7.5,-4.5,0.299,255,255,255
81750,-7.5,-4.5,0.1588,255,255,255
82000,-7.5,-4.5,0.0515,255,255,255
82250,-7.5,-4.5,0.0012,255,255,255
82500,-7.5,-4.5,0,255,255,255
82750,-7.5,-4.5,0,255,255,255
83000,-7.5,-4.5,0,255,255,255
83250,-7.5,-4.5,0,255,255,255
83500,-7.5,-4.5,0,255,255,255
83750,-7.5,-4.5,0,255,255,255
84000,-7.5,-4.5,0,255,255,255
84250,-7.5,-4.5,0,255,255,255
84500,-7.5,-4.5,0,255,255,255
84750,-7.5,-4.5,0,255,255,255
85000,-7.5,-4.5,0,255,255,255
85250,-7.5,-4.5,0,255,255,255
85500,-7.5,-4.5,0,255,255,255
85750,-7.5,-4.5,0,255,255,255
86000,-7.5,-4.5,0,255,255,255
86250,-7.5,-4.5,0,255,255,255
86500,-7.5,-4.5,0,255,255,255
86750,-7.5,-4.5,0,255,255,255
87000,-7.5,-4.5,0,255,255,255
87250,-7.5,-4.5,0,255,255,255
87500,-7.5,-4.5,0,255,255,255
87750,-7.5,-4.5,0,255,255,255
88000,-7.5,-4.5,0,255,255,255
88250,-7.5,-4.5,0,255,255,255
88500,-7.5,-4.5,0,255,255,255
88750,-7.5,-4.5,0,255,255,255
89000,-7.5,-4.5,0,255,255,255
89250,-7.5,-4.5,0,255,255,255
89500,-7.5,-4.5,0,255,255,255
89750,-7.5,-4.5,0,255,255,255
90000,-7.5,-4.5,0,255,255,255
90250,-7.5,-4.5,0,255,255,255
90500,-7.5,-4.5,0,255,255,255
90750,-7.5,-4.5,0,255,255,255
91000,-7.5,-4.5,0,255,255,255
91250,-7.5,-4.5,0,255,255,255
91500,-7.5,-4.5,0,255,255,255
91750,-7.5,-4.5,0,255,255,255
92000,-7.5,-4.5,0,255,255,255
92250,-7.5,-4.5,0,255,255,255
92500,-7.5,-4.5,0,255,255,255
92750,-7.5,-4.5,0,255,255,255
93000,-7.5,-4.5,0,255,255,255
93250,-7.5,-4.5,0,255,255,255
93500,-7.5,-4.5,0,255,255,255
93750,-7.5,-4.5,0,255,255,255
94000,-7.5,-4.5,0,255,255,255
94250,-7.5,-4.5,0,255,255,255
94500,-7.5,-4.5,0,255,255,255
94750,-7.5,-4.5,0,255,255,255
95000,-7.5,-4.5,0,255,255,255
95250,-7.5,-4.5,0,255,255,255
95500,-7.5,-4.5,0,255,255,255
95750,-7.5,-4.5,0,255,255,255
96000,-7.5,-4.5,0,255,255,255
96250,-7.5,-4.5,0,255,255,255
96500,-7.5,-4.5,0,255,255,255
96750,-7.5,-4.5,0,255,255,255
97000,-7.5,-4.5,0,255,255,255
97250,-7.5,-4.5,0,255,255,255
97500,-7.5,-4.5,0,255,255,255
97750,-7.5,-4.5,0,255,255,255
98000,-7.5,-4.5,0,255,255,255
98250,-7.5,-4.5,0,255,255,255
98500,-7.5,-4.5,0,255,255,255
98750,-7.5,-4.5,0,255,255,255
99000,-7.5,-4.5,0,255,255,255
99250,-7.5,-4.5,0,255,255,255
99500,-7.5,-4.5,0,255,255,255
99750,-7.5,-4.5,0,255,255,255
100000,-7.5,-4.5,0,255,255,255
100250,-7.5,-4.5,0,255,255,255
100500,-7.5,-4.5,0,255,255,255
100750,-7.5,-4.5,0,255,255,255
101000,-7.5,-4.5,0,255,255,255
101250,-7.5,-4.5,0,255,255,255
101500,-7.5,-4.5,0,255,255,255
101750,-7.5,-4.5,0,255,255,255
102000,-7.5,-4.5,0,255,255,255
102250,-7.5,-4.5,0,255,255,255
102500,-7.5,-4.5,0,255,255,255
102750,-7.5,-4.5,0,255,255,255
103000,-7.5,-4.5,0,255,255,255
103250,-7.5,-4.5,0,255,255,255
103500,-7.5,-4.5,0,255,255,255
103750,-7.5,-4.5,0,255,255,255
104000,-7.5,-4.5,0,255,255,255
