Time [msec],x [m],y [m],z [m],Red,Green,Blue
0,-7.5,5,0,255,255,255
250,-7.5,5,0.0474,255,255,255
500,-7.5,5,0.2195,255,255,255
750,-7.5,5,0.5,255,255,255
1000,-7.5,5,0.8703,255,255,255
1250,-7.5,5,1.3121,255,255,255
1500,-7.5,5,1.8083,255,255,255
1750,-7.5,5,2.3437,255,255,255
2000,-7.5,5,2.9005,255,255,255
2250,-7.5,5,3.4611,255,255,255
2500,-7.5,5,4.0076,255,255,255
2750,-7.5,5,4.5223,255,255,255
3000,-7.5,5,4.9874,255,255,255
3250,-7.5,5,5.3853,255,255,255
3500,-7.5,5,5.6982,255,255,255
3750,-7.5,5,5.9084,255,255,255
4000,-7.5,5,5.998,255,255,255
4250,-7.5,5,6,255,255,255
4500,-7.5,5,6,255,255,255
4750,-7.5,5,6,255,255,255
5000,-7.5,5,6,255,255,255
5250,-7.5,5,6,255,255,255
5500,-7.5,5,6,255,255,255
5750,-7.5,5,6,255,255,255
6000,-7.5,5,6,255,255,255
6250,-7.5021,4.998,6.0098,255,255,255
6500,-7.5099,4.9904,6.047,255,255,255
6750,-7.5234,4.9774,6.111,255,255,255
7000,-7.5423,4.959,6.2007,255,255,255
7250,-7.5665,4.9357,6.3153,255,255,255
7500,-7.5957,4.9074,6.4536,255,255,255
7750,-7.6296,4.8745,6.6146,255,255,255
8000,-7.6682,4.8372,6.7975,255,255,255
8250,-7.7111,4.7956,7.001,255,255,255
8500,-7.7581,4.75,7.2244,255,255,255
8750,-7.8091,4.7005,7.4664,255,255,255
9000,-7.8639,4.6474,7.7262,255,255,255
9250,-7.9221,4.5909,8.0028,255,255,255
9500,-7.9837,4.5311,8.295,255,255,255
9750,-8.0483,4.4683,8.602,255,255,255
10000,-8.1159,4.4027,8.9227,255,255,255
10250,-8.1861,4.3345,9.2561,255,255,255
10500,-8.2587,4.2638,9.6012,255,255,255
10750,-8.3336,4.191,9.957,255,255,255
11000,-8.4105,4.1161,10.3225,255,255,255
11250,-8.4892,4.0395,10.6967,255,255,255
11500,-8.5695,3.9612,11.0786,255,255,255
11750,-8.6512,3.8815,11.4671,255,255,255
12000,-8.734,3.8007,11.8612,255,255,255
12250,-8.8177,3.7191,12.2595,255,255,255
12500,-8.9021,3.6368,12.6607,255,255,255
12750,-8.9869,3.5542,13.0638,255,255,255
13000,-9.0719,3.4715,13.4676,255,255,255
13250,-9.1568,3.3889,13.871,255,255,255
13500,-9.2414,3.3066,14.2729,255,255,255
13750,-9.3254,3.2249,14.672,255,255,255
14000,-9.4086,3.144,15.0672,255,255,255
14250,-9.4908,3.0642,15.4574,255,255,255
14500,-9.5717,2.9856,15.8414,255,255,255
14750,-9.6511,2.9086,16.2182,255,255,255
15000,-9.7287,2.8332,16.5865,255,255,255
15250,-9.8043,2.7599,16.9451,255,255,255
15500,-9.8776,2.6887,17.2931,255,255,255
15750,-9.9484,2.62,17.6291,255,255,255
16000,-10.0165,2.554,17.9521,255,255,255
16250,-10.0816,2.4909,18.2609,255,255,255
16500,-10.1435,2.4309,18.5544,255,255,255
16750,-10.2019,2.3743,18.8314,255,255,255
17000,-10.2566,2.3213,19.0907,255,255,255
17250,-10.3073,2.2722,19.3313,255,255,255
17500,-10.3538,2.2271,19.552,255,255,255
17750,-10.3959,2.1863,19.7516,255,255,255
18000,-10.4333,2.1501,19.929,255,255,255
18250,-10.4658,2.1186,20.083,255,255,255
18500,-10.4932,2.0922,20.2125,255,255,255
18750,-10.5151,2.0709,20.3164,255,255,255
19000,-10.5313,2.0552,20.3934,255,255,255
19250,-10.5417,2.0452,20.4425,255,255,255
19500,-10.5459,2.0411,20.4626,255,255,255
19750,-10.546,2.041,20.463,255,255,255
20000,-10.546,2.041,20.463,255,255,255
20250,-10.546,2.041,20.463,255,255,255
20500,-10.546,2.041,20.463,255,255,255
20750,-10.546,2.041,20.463,255,255,255
21000,-10.546,2.041,20.463,255,255,255
21250,-10.546,2.041,20.463,255,255,255
21500,-10.546,2.041,20.463,255,255,255
21750,-10.546,2.041,20.463,255,255,255
22000,-10.546,2.041,20.463,255,255,255
22250,-10.546,2.041,20.463,255,255,255
22500,-10.546,2.041,20.463,255,255,255
22750,-10.546,2.041,20.463,255,255,255
23000,-10.546,2.041,20.463,255,255,255
23250,-10.546,2.041,20.463,255,255,255
23500,-10.546,2.041,20.463,255,255,255
23750,-10.54,2.0536,20.4707,255,255,255
24000,-10.4869,2.1173,20.5098,255,255,255
24250,-10.3328,2.2601,20.598,255,255,255
24500,-10.0239,2.5097,20.7523,255,255,255
24750,-9.5547,2.8693,20.975,255,255,255
25000,-9.0212,3.2914,21.2362,255,255,255
25250,-8.48,3.748,21.5184,255,255,255
25500,-7.9859,4.212,21.8048,255,255,255
25750,-7.5939,4.6562,22.0785,255,255,255
26000,-7.3448,5.0594,22.3262,255,255,255
26250,-7.2145,5.4221,22.5485,255,255,255
26500,-7.1638,5.747,22.7472,255,255,255
26750,-7.1535,6.0366,22.9243,255,255,255
27000,-7.1502,6.2931,23.081,255,255,255
27250,-7.1471,6.5113,23.2144,255,255,255
27500,-7.1445,6.6821,23.3188,255,255,255
27750,-7.1428,6.7963,23.3886,255,255,255
28000,-7.142,6.8449,23.4183,255,255,255
28250,-7.142,6.846,23.419,255,255,255
28500,-7.142,6.846,23.419,255,255,255
28750,-7.142,6.846,23.419,255,255,255
29000,-7.142,6.846,23.419,255,255,255
29250,-7.142,6.846,23.419,255,255,255
29500,-7.142,6.846,23.419,255,255,255
29750,-7.142,6.846,23.419,255,255,255
30000,-7.142,6.846,23.419,255,255,255
30250,-7.142,6.846,23.419,255,255,255
30500,-7.142,6.846,23.419,255,255,255
30750,-7.142,6.846,23.419,255,255,255
31000,-7.142,6.846,23.419,255,255,255
31250,-7.142,6.846,23.419,255,255,255
31500,-7.142,6.846,23.419,255,255,255
31750,-7.142,6.846,23.419,255,255,255
32000,-7.142,6.846,23.419,255,255,255
32250,-7.1354,6.8345,23.4056,255,255,255
32500,-7.1349,6.7908,23.3777,255,255,255
32750,-7.1844,6.715,23.3767,255,255,255
33000,-7.3284,6.608,23.4448,255,255,255
33250,-7.5787,6.4712,23.5942,255,255,255
33500,-7.8741,6.3065,23.7688,255,255,255
33750,-8.1762,6.1145,23.9329,255,255,255
34000,-8.4479,5.8959,24.0519,255,255,255
34250,-8.652,5.6511,24.0909,255,255,255
34500,-8.7513,5.3809,24.0154,255,255,255
34750,-8.7197,5.0868,23.802,255,255,255
35000,-8.5813,4.7781,23.4792,255,255,255
35250,-8.3713,4.4671,23.0879,255,255,255
35500,-8.125,4.1659,22.6686,255,255,255
35750,-7.8773,3.8868,22.2622,255,255,255
36000,-7.657,3.6404,21.902,255,255,255
36250,-7.4719,3.4332,21.599,255,255,255
36500,-7.3283,3.2725,21.3641,255,255,255
36750,-7.2331,3.166,21.2083,255,255,255
37000,-7.1929,3.121,21.1424,255,255,255
37250,-7.192,3.12,21.141,255,255,255
37500,-7.192,3.12,21.141,255,255,255
37750,-7.192,3.12,21.141,255,255,255
38000,-7.192,3.12,21.141,255,255,255
38250,-7.192,3.12,21.141,255,255,255
38500,-7.192,3.12,21.141,255,255,255
38750,-7.192,3.12,21.141,255,255,255
39000,-7.192,3.12,21.141,255,255,255
39250,-7.192,3.12,21.141,255,255,255
39500,-7.192,3.12,21.141,255,255,255
39750,-7.192,3.12,21.141,255,255,255
40000,-7.192,3.12,21.141,255,255,255
40250,-7.192,3.12,21.141,255,255,255
40500,-7.192,3.12,21.141,255,255,255
40750,-7.192,3.12,21.141,255,255,255
41000,-7.192,3.12,21.141,255,255,255
41250,-7.1973,3.1238,21.1432,255,255,255
41500,-7.2208,3.1104,21.1648,255,255,255
41750,-7.2684,3.0302,21.2296,255,255,255
42000,-7.3457,2.8331,21.3616,255,255,255
42250,-7.4549,2.5051,21.5791,255,255,255
42500,-7.5914,2.1079,21.8743,255,255,255
42750,-7.754,1.6735,22.2309,255,255,255
43000,-7.9415,1.2326,22.6331,255,255,255
43250,-8.1526,0.816,23.0648,255,255,255
43500,-8.3863,0.4544,23.5101,255,255,255
43750,-8.6412,0.1787,23.953,255,255,255
44000,-8.9144,0.0015,24.3744,255,255,255
44250,-9.2037,-0.1036,24.7625,255,255,255
44500,-9.5115,-0.1484,25.1181,255,255,255
44750,-9.8405,-0.1441,25.4424,255,255,255
45000,-10.1932,-0.102,25.7365,255,255,255
45250,-10.5628,-0.0408,26.0114,255,255,255
45500,-10.9328,0.0207,26.2859,255,255,255
45750,-11.4148,0.0627,26.5966,255,255,255
46000,-12.1699,0.0579,26.996,255,255,255
46250,-13.1217,0.0204,27.4598,255,255,255
46500,-14.1887,-0.0346,27.9622,255,255,255
46750,-15.2895,-0.092,28.4772,255,255,255
47000,-16.3425,-0.1368,28.9792,255,255,255
47250,-17.2664,-0.1537,29.4422,255,255,255
47500,-17.9796,-0.1277,29.8403,255,255,255
47750,-18.4471,-0.0518,30.1621,255,255,255
48000,-18.7593,0.0567,30.435,255,255,255
48250,-18.9897,0.1823,30.6821,255,255,255
48500,-19.2107,0.3095,30.9258,255,255,255
48750,-19.4613,0.43,31.1781,255,255,255
49000,-19.7113,0.5494,31.4291,255,255,255
49250,-19.9591,0.6676,31.6779,255,255,255
49500,-20.2041,0.7845,31.9236,255,255,255
49750,-20.4455,0.8998,32.1658,255,255,255
50000,-20.6826,1.0132,32.4035,255,255,255
50250,-20.9149,1.1243,32.6363,255,255,255
50500,-21.1414,1.2327,32.8634,255,255,255
50750,-21.3617,1.338,33.0843,255,255,255
51000,-21.575,1.44,33.2983,255,255,255
51250,-21.7806,1.5382,33.5046,255,255,255
51500,-21.9779,1.6325,33.7027,255,255,255
51750,-22.1663,1.7225,33.8918,255,255,255
52000,-22.3451,1.8078,34.0713,255,255,255
52250,-22.5136,1.8882,34.2405,255,255,255
52500,-22.6711,1.9634,34.3988,255,255,255
52750,-22.8171,2.033,34.5454,255,255,255
53000,-22.9509,2.0968,34.6798,255,255,255
53250,-23.0717,2.1544,34.8013,255,255,255
53500,-23.1789,2.2056,34.9091,255,255,255
53750,-23.272,2.2499,35.0026,255,255,255
54000,-23.3501,2.2871,35.0812,255,255,255
54250,-23.4127,2.317,35.1442,255,255,255
54500,-23.4591,2.3391,35.1909,255,255,255
54750,-23.4887,2.3531,35.2206,255,255,255
55000,-23.5007,2.3589,35.2327,255,255,255
55250,-23.501,2.359,35.233,255,255,255
55500,-23.501,2.359,35.233,255,255,255
55750,-23.501,2.359,35.233,255,255,255
56000,-23.501,2.359,35.233,255,255,255
56250,-23.501,2.359,35.233,255,255,255
56500,-23.501,2.359,35.233,255,255,255
56750,-23.501,2.359,35.233,255,255,255
57000,-23.501,2.359,35.233,255,255,255
57250,-23.501,2.359,35.233,255,255,255
57500,-23.501,2.359,35.233,255,255,255
57750,-23.501,2.359,35.233,255,255,255
58000,-23.501,2.359,35.233,255,255,255
58250,-23.501,2.359,35.233,255,255,255
58500,-23.501,2.359,35.233,255,255,255
58750,-23.501,2.359,35.233,255,255,255
59000,-23.501,2.359,35.233,255,255,255
59250,-23.4747,2.329,35.2317,255,255,255
59500,-23.3754,2.2158,35.2269,255,255,255
59750,-23.2052,2.0215,35.2186,255,255,255
60000,-22.9672,1.7498,35.207,255,255,255
60250,-22.6647,1.4043,35.1922,255,255,255
60500,-22.3007,0.9887,35.1744,255,255,255
60750,-21.8784,0.5063,35.1537,255,255,255
61000,-21.4076,-0.0316,35.1307,255,255,255
61250,-20.908,-0.6023,35.1064,255,255,255
61500,-20.391,-1.1929,35.0812,255,255,255
61750,-19.868,-1.7903,35.0558,255,255,255
62000,-19.3502,-2.3816,35.0307,255,255,255
62250,-18.8489,-2.9541,35.0064,255,255,255
62500,-18.3754,-3.4948,34.9835,255,255,255
62750,-17.941,-3.9909,34.9625,255,255,255
63000,-17.557,-4.4294,34.944,255,255,255
63250,-17.2347,-4.7974,34.9284,255,255,255
63500,-16.9853,-5.0822,34.9164,255,255,255
63750,-16.8202,-5.2708,34.9084,255,255,255
64000,-16.7505,-5.3503,34.9051,255,255,255
64250,-16.749,-5.352,34.905,255,255,255
64500,-16.749,-5.352,34.905,255,255,255
64750,-16.749,-5.352,34.905,255,255,255
65000,-16.749,-5.352,34.905,255,255,255
65250,-16.749,-5.352,34.905,255,255,255
65500,-16.749,-5.352,34.905,255,255,255
65750,-16.749,-5.352,34.905,255,255,255
66000,-16.749,-5.352,34.905,255,255,255
66250,-16.749,-5.352,34.905,255,255,255
66500,-16.749,-5.352,34.905,255,255,255
66750,-16.749,-5.352,34.905,255,255,255
67000,-16.749,-5.352,34.905,255,255,255
67250,-16.749,-5.352,34.905,255,255,255
67500,-16.749,-5.352,34.905,255,255,255
67750,-16.749,-5.352,34.905,255,255,255
68000,-16.749,-5.352,34.905,255,255,255
68250,-16.749,-5.352,34.905,255,255,255
68500,-16.749,-5.352,34.905,255,255,255
68750,-16.749,-5.352,34.905,255,255,255
69000,-16.749,-5.352,34.905,255,255,255
69250,-16.749,-5.352,34.905,255,255,255
69500,-16.749,-5.352,34.905,255,255,255
69750,-16.749,-5.352,34.905,255,255,255
70000,-16.749,-5.352,34.905,255,255,255
70250,-16.749,-5.352,34.905,255,255,255
70500,-16.749,-5.352,34.905,255,255,255
70750,-16.749,-5.352,34.905,255,255,255
71000,-16.749,-5.352,34.905,255,255,255
71250,-16.749,-5.352,34.905,255,255,255
71500,-16.749,-5.352,34.905,255,255,255
71750,-16.749,-5.352,34.905,255,255,255
72000,-16.749,-5.352,34.905,255,255,255
72250,-16.749,-5.352,34.905,255,255,255
72500,-16.749,-5.352,34.905,255,255,255
72750,-16.749,-5.352,34.905,255,255,255
73000,-16.749,-5.352,34.905,255,255,255
73250,-16.749,-5.352,34.905,255,255,255
73500,-16.749,-5.352,34.905,255,255,255
73750,-16.749,-5.352,34.905,255,255,255
74000,-16.749,-5.352,34.905,255,255,255
74250,-16.749,-5.352,34.905,255,255,255
74500,-16.749,-5.352,34.905,255,255,255
74750,-16.749,-5.352,34.905,255,255,255
75000,-16.749,-5.352,34.905,255,255,255
75250,-16.749,-5.352,34.905,255,255,255
75500,-16.749,-5.352,34.905,255,255,255
75750,-16.749,-5.352,34.905,255,255,255
76000,-16.749,-5.352,34.905,255,255,255
76250,-16.749,-5.352,34.905,255,255,255
76500,-16.7455,-5.3499,34.8955,255,255,255
76750,-16.732,-5.3421,34.8592,255,255,255
77000,-16.7087,-5.3287,34.7965,255,255,255
77250,-16.6759,-5.3097,34.7081,255,255,255
77500,-16.6339,-5.2853,34.5949,255,255,255
77750,-16.5829,-5.2558,34.4576,255,255,255
78000,-16.5233,-5.2212,34.2969,255,255,255
78250,-16.4553,-5.1818,34.1136,255,255,255
78500,-16.3791,-5.1377,33.9085,255,255,255
78750,-16.2951,-5.0891,33.6823,255,255,255
79000,-16.2036,-5.0361,33.4357,255,255,255
79250,-16.1048,-4.9788,33.1696,255,255,255
79500,-15.999,-4.9176,32.8846,255,255,255
79750,-15.8866,-4.8524,32.5816,255,255,255
80000,-15.7676,-4.7835,32.2613,255,255,255
80250,-15.6426,-4.7111,31.9244,255,255,255
80500,-15.5117,-4.6353,31.5718,255,255,255
80750,-15.3752,-4.5562,31.2041,255,255,255
81000,-15.2334,-4.4741,30.8221,255,255,255
81250,-15.0865,-4.3891,30.4266,255,255,255
81500,-14.935,-4.3014,30.0184,255,255,255
81750,-14.7789,-4.211,29.5982,255,255,255
82000,-14.6187,-4.1183,29.1667,255,255,255
82250,-14.4546,-4.0233,28.7247,255,255,255
82500,-14.2869,-3.9262,28.273,255,255,255
82750,-14.1159,-3.8272,27.8123,255,255,255
83000,-13.9418,-3.7264,27.3434,255,255,255
83250,-13.7649,-3.624,26.8671,255,255,255
83500,-13.5855,-3.5202,26.384,255,255,255
83750,-13.404,-3.4151,25.895,255,255,255
84000,-13.2204,-3.3089,25.4009,255,255,255
84250,-13.0353,-3.2017,24.9022,255,255,255
84500,-12.8487,-3.0938,24.4,255,255,255
84750,-12.6611,-2.9853,23.8948,255,255,255
85000,-12.4727,-2.8763,23.3874,255,255,255
85250,-12.2837,-2.7669,22.8787,255,255,255
85500,-12.0945,-2.6575,22.3693,255,255,255
85750,-11.9054,-2.5481,21.86,255,255,255
86000,-11.7165,-2.4389,21.3516,255,255,255
86250,-11.5283,-2.33,20.8448,255,255,255
86500,-11.3409,-2.2217,20.3404,255,255,255
86750,-11.1547,-2.1141,19.8391,255,255,255
87000,-10.9699,-2.0072,19.3418,255,255,255
87250,-10.7869,-1.9015,18.8491,255,255,255
87500,-10.6058,-1.7968,18.3618,255,255,255
87750,-10.4271,-1.6935,17.8807,255,255,255
88000,-10.2509,-1.5918,17.4066,255,255,255
88250,-10.0775,-1.4916,16.9401,255,255,255
88500,-9.9073,-1.3933,16.4821,255,255,255
88750,-9.7406,-1.2971,16.0337,255,255,255
89000,-9.5782,-1.2033,15.5967,255,255,255
89250,-9.4202,-1.112,15.1715,255,255,255
89500,-9.2669,-1.0234,14.7588,255,255,255
89750,-9.1184,-0.9375,14.3592,255,255,255
90000,-8.975,-0.8546,13.9732,255,255,255
90250,-8.8369,-0.7747,13.6014,255,255,255
90500,-8.7043,-0.698,13.2443,255,255,255
90750,-8.5775,-0.6245,12.9027,255,255,255
91000,-8.4565,-0.5545,12.577,255,255,255
91250,-8.3417,-0.488,12.2678,255,255,255
91500,-8.2333,-0.4252,11.9758,255,255,255
91750,-8.1314,-0.3662,11.7014,255,255,255
92000,-8.0364,-0.3111,11.4453,255,255,255
92250,-7.9483,-0.2601,11.2081,255,255,255
92500,-7.8675,-0.2132,10.9903,255,255,255
92750,-7.7941,-0.1706,10.7925,255,255,255
93000,-7.7283,-0.1325,10.6153,255,255,255
93250,-7.6704,-0.0989,10.4593,255,255,255
93500,-7.6206,-0.07,10.325,255,255,255
93750,-7.579,-0.0459,10.2131,255,255,255
94000,-7.546,-0.0267,10.1241,255,255,255
94250,-7.5217,-0.0126,10.0586,255,255,255
94500,-7.5064,-0.0037,10.0171,255,255,255
94750,-7.5001,-0.0001,10.0004,255,255,255
95000,-7.5,0,10,255,255,255
95250,-7.5,0,10,255,255,255
95500,-7.5,0,10,255,255,255
95750,-7.5,0,10,255,255,255
