Time [msec],x [m],y [m],z [m],Red,Green,Blue
0,-13.5,13.5,0,255,255,255
250,-13.5014,13.5,0.001,255,255,255
500,-13.5068,13.4999,0.0047,255,255,255
750,-13.5162,13.4997,0.0113,255,255,255
1000,-13.5297,13.4994,0.0206,255,255,255
1250,-13.5471,13.499,0.0327,255,255,255
1500,-13.5686,13.4985,0.0475,255,255,255
1750,-13.5939,13.498,0.0651,255,255,255
2000,-13.6232,13.4973,0.0854,255,255,255
2250,-13.6564,13.4966,0.1084,255,255,255
2500,-13.6935,13.4958,0.1341,255,255,255
2750,-13.7345,13.4949,0.1625,255,255,255
3000,-13.7793,13.494,0.1936,255,255,255
3250,-13.8279,13.4929,0.2273,255,255,255
3500,-13.8804,13.4918,0.2636,255,255,255
3750,-13.9366,13.4906,0.3026,255,255,255
4000,-13.9966,13.4893,0.3442,255,255,255
4250,-14.0603,13.4879,0.3884,255,255,255
4500,-14.1278,13.4864,0.4352,255,255,255
4750,-14.199,13.4849,0.4845,255,255,255
5000,-14.2738,13.4833,0.5364,255,255,255
5250,-14.3523,13.4816,0.5908,255,255,255
5500,-14.4345,13.4798,0.6478,255,255,255
5750,-14.5202,13.4779,0.7072,255,255,255
6000,-14.6096,13.476,0.7692,255,255,255
6250,-14.7026,13.474,0.8337,255,255,255
6500,-14.7991,13.4719,0.9006,255,255,255
6750,-14.8991,13.4697,0.97,255,255,255
7000,-15.0027,13.4674,1.0418,255,255,255
7250,-15.1098,13.4651,1.116,255,255,255
7500,-15.2203,13.4627,1.1927,255,255,255
7750,-15.3343,13.4602,1.2717,255,255,255
8000,-15.4518,13.4577,1.3531,255,255,255
8250,-15.5726,13.455,1.4369,255,255,255
8500,-15.6969,13.4523,1.5231,255,255,255
8750,-15.8245,13.4495,1.6116,255,255,255
9000,-15.9554,13.4467,1.7024,255,255,255
9250,-16.0898,13.4437,1.7956,255,255,255
9500,-16.2274,13.4407,1.891,255,255,255
9750,-16.3683,13.4376,1.9887,255,255,255
10000,-16.5125,13.4345,2.0887,255,255,255
10250,-16.6599,13.4312,2.191,255,255,255
10500,-16.8105,13.4279,2.2955,255,255,255
10750,-16.9644,13.4246,2.4022,255,255,255
11000,-17.1215,13.4211,2.5111,255,255,255
11250,-17.2817,13.4176,2.6223,255,255,255
11500,-17.445,13.414,2.7356,255,255,255
11750,-17.6115,13.4104,2.8511,255,255,255
12000,-17.7811,13.4066,2.9687,255,255,255
12250,-17.9538,13.4028,3.0885,255,255,255
12500,-18.1296,13.399,3.2104,255,255,255
12750,-18.3084,13.395,3.3345,255,255,255
13000,-18.4902,13.391,3.4606,255,255,255
13250,-18.675,13.3869,3.5888,255,255,255
13500,-18.8628,13.3828,3.7191,255,255,255
13750,-19.0536,13.3786,3.8515,255,255,255
14000,-19.2473,13.3743,3.9859,255,255,255
14250,-19.4439,13.37,4.1223,255,255,255
14500,-19.6434,13.3656,4.2607,255,255,255
14750,-19.8458,13.3611,4.4012,255,255,255
15000,-20.0511,13.3565,4.5436,255,255,255
15250,-20.2592,13.3519,4.688,255,255,255
15500,-20.4701,13.3472,4.8343,255,255,255
15750,-20.6838,13.3425,4.9826,255,255,255
16000,-20.9003,13.3377,5.1329,255,255,255
16250,-21.1195,13.3328,5.285,255,255,255
16500,-21.3415,13.3279,5.4391,255,255,255
16750,-21.5662,13.3229,5.595,255,255,255
17000,-21.7935,13.3179,5.7528,255,255,255
17250,-22.0236,13.3127,5.9125,255,255,255
17500,-22.2563,13.3076,6.074,255,255,255
17750,-22.4916,13.3023,6.2373,255,255,255
18000,-22.7296,13.297,6.4025,255,255,255
18250,-22.9701,13.2916,6.5694,255,255,255
18500,-23.2132,13.2862,6.7382,255,255,255
18750,-23.4589,13.2807,6.9087,255,255,255
19000,-23.7071,13.2752,7.081,255,255,255
19250,-23.9578,13.2696,7.255,255,255,255
19500,-24.2109,13.2639,7.4308,255,255,255
19750,-24.4666,13.2582,7.6083,255,255,255
20000,-24.7247,13.2524,7.7874,255,255,255
20250,-24.9852,13.2465,7.9683,255,255,255
20500,-25.2481,13.2407,8.1509,255,255,255
20750,-25.5134,13.2347,8.3351,255,255,255
21000,-25.7811,13.2287,8.5209,255,255,255
21250,-26.0511,13.2226,8.7084,255,255,255
21500,-26.3234,13.2165,8.8975,255,255,255
21750,-26.5981,13.2103,9.0882,255,255,255
22000,-26.875,13.2041,9.2805,255,255,255
22250,-27.1541,13.1978,9.4743,255,255,255
22500,-27.4356,13.1914,9.6698,255,255,255
22750,-27.7192,13.185,9.8667,255,255,255
23000,-28.005,13.1786,10.0653,255,255,255
23250,-28.293,13.172,10.2653,255,255,255
23500,-28.5832,13.1655,10.4668,255,255,255
23750,-28.8755,13.1589,10.6698,255,255,255
24000,-29.1699,13.1522,10.8743,255,255,255
24250,-29.4664,13.1455,11.0803,255,255,255
24500,-29.765,13.1387,11.2877,255,255,255
24750,-30.0657,13.1319,11.4965,255,255,255
25000,-30.3683,13.125,11.7068,255,255,255
25250,-30.673,13.1181,11.9185,255,255,255
25500,-30.9797,13.1111,12.1315,255,255,255
25750,-31.2884,13.1041,12.3459,255,255,255
26000,-31.599,13.097,12.5617,255,255,255
26250,-31.9115,13.0898,12.7789,255,255,255
26500,-32.226,13.0827,12.9974,255,255,255
26750,-32.5423,13.0754,13.2171,255,255,255
27000,-32.8605,13.0682,13.4382,255,255,255
27250,-33.1805,13.0609,13.6606,255,255,255
27500,-33.5024,13.0535,13.8843,255,255,255
27750,-33.8261,13.0461,14.1092,255,255,255
28000,-34.1516,13.0386,14.3354,255,255,255
28250,-34.4788,13.0311,14.5628,255,255,255
28500,-34.8078,13.0235,14.7915,255,255,255
28750,-35.1385,13.0159,15.0213,255,255,255
29000,-35.4709,13.0083,15.2524,255,255,255
29250,-35.805,13.0006,15.4846,255,255,255
29500,-36.1407,12.9929,15.718,255,255,255
29750,-36.4781,12.9851,15.9525,255,255,255
30000,-36.8172,12.9773,16.1881,255,255,255
30250,-37.1578,12.9694,16.4249,255,255,255
30500,-37.5,12.9615,16.6628,255,255,255
30750,-37.8437,12.9535,16.9018,255,255,255
31000,-38.189,12.9455,17.1419,255,255,255
31250,-38.5358,12.9375,17.383,255,255,255
31500,-38.8841,12.9294,17.6252,255,255,255
31750,-39.2339,12.9213,17.8684,255,255,255
32000,-39.5852,12.9131,18.1126,255,255,255
32250,-39.9378,12.9049,18.3579,255,255,255
32500,-40.2919,12.8967,18.6041,255,255,255
32750,-40.6474,12.8884,18.8513,255,255,255
33000,-41.0043,12.8801,19.0995,255,255,255
33250,-41.3625,12.8717,19.3486,255,255,255
33500,-41.722,12.8633,19.5987,255,255,255
33750,-42.0829,12.8549,19.8497,255,255,255
34000,-42.445,12.8464,20.1016,255,255,255
34250,-42.8085,12.8379,20.3544,255,255,255
34500,-43.1731,12.8294,20.608,255,255,255
34750,-43.5391,12.8208,20.8626,255,255,255
35000,-43.9062,12.8123,21.1179,255,255,255
35250,-44.2745,12.8037,21.3741,255,255,255
35500,-44.6441,12.795,21.6311,255,255,255
35750,-45.0147,12.7864,21.8889,255,255,255
36000,-45.3865,12.7777,22.1475,255,255,255
36250,-45.7595,12.769,22.4068,255,255,255
36500,-46.1335,12.7603,22.6669,255,255,255
36750,-46.5086,12.7516,22.9277,255,255,255
37000,-46.8848,12.7428,23.1893,255,255,255
37250,-47.2619,12.7341,23.4516,255,255,255
37500,-47.6401,12.7253,23.7146,255,255,255
37750,-48.0193,12.7165,23.9782,255,255,255
38000,-48.3995,12.7077,24.2426,255,255,255
38250,-48.7806,12.6988,24.5075,255,255,255
38500,-49.1627,12.69,24.7732,255,255,255
38750,-49.5456,12.6811,25.0394,255,255,255
39000,-49.9295,12.6722,25.3063,255,255,255
39250,-50.3142,12.6633,25.5737,255,255,255
39500,-50.6998,12.6544,25.8418,255,255,255
39750,-51.0862,12.6455,26.1104,255,255,255
40000,-51.4734,12.6365,26.3796,255,255,255
40250,-51.8614,12.6276,26.6493,255,255,255
40500,-52.2501,12.6186,26.9195,255,255,255
40750,-52.6396,12.6096,27.1903,255,255,255
41000,-53.0299,12.6006,27.4616,255,255,255
41250,-53.4208,12.5916,27.7333,255,255,255
41500,-53.8124,12.5826,28.0055,255,255,255
41750,-54.2047,12.5735,28.2782,255,255,255
42000,-54.5976,12.5645,28.5513,255,255,255
42250,-54.9912,12.5554,28.8248,255,255,255
42500,-55.3853,12.5464,29.0988,255,255,255
42750,-55.7801,12.5373,29.3731,255,255,255
43000,-56.1754,12.5282,29.6478,255,255,255
43250,-56.5712,12.5191,29.9229,255,255,255
43500,-56.9676,12.51,30.1984,255,255,255
43750,-57.3644,12.5009,30.4742,255,255,255
44000,-57.7618,12.4918,30.7503,255,255,255
44250,-58.1595,12.4827,31.0267,255,255,255
44500,-58.5578,12.4735,31.3035,255,255,255
44750,-58.9564,12.4644,31.5805,255,255,255
45000,-59.3555,12.4552,31.8578,255,255,255
45250,-59.7549,12.4461,32.1354,255,255,255
45500,-60.1547,12.4369,32.4131,255,255,255
45750,-60.5548,12.4278,32.6912,255,255,255
46000,-60.9552,12.4186,32.9694,255,255,255
46250,-61.3559,12.4095,33.2478,255,255,255
46500,-61.7569,12.4003,33.5265,255,255,255
46750,-62.1581,12.3911,33.8052,255,255,255
47000,-62.5596,12.382,34.0842,255,255,255
47250,-62.9613,12.3728,34.3633,255,255,255
47500,-63.3632,12.3636,34.6425,255,255,255
47750,-63.7652,12.3545,34.9218,255,255,255
48000,-64.1674,12.3453,35.2013,255,255,255
48250,-64.5698,12.3361,35.4808,255,255,255
48500,-64.9722,12.3269,35.7604,255,255,255
48750,-65.3747,12.3178,36.04,255,255,255
49000,-65.7773,12.3086,36.3197,255,255,255
49250,-66.1799,12.2994,36.5994,255,255,255
49500,-66.5826,12.2903,36.8791,255,255,255
49750,-66.9853,12.2811,37.1589,255,255,255
50000,-67.3879,12.2719,37.4386,255,255,255
50250,-67.7906,12.2628,37.7183,255,255,255
50500,-68.1931,12.2536,37.9979,255,255,255
50750,-68.5956,12.2445,38.2775,255,255,255
51000,-68.998,12.2353,38.557,255,255,255
51250,-69.4003,12.2262,38.8364,255,255,255
51500,-69.8024,12.2171,39.1158,255,255,255
51750,-70.2044,12.208,39.395,255,255,255
52000,-70.6062,12.1988,39.6741,255,255,255
52250,-71.0078,12.1897,39.953,255,255,255
52500,-71.4091,12.1806,40.2318,255,255,255
52750,-71.8103,12.1715,40.5104,255,255,255
53000,-72.2112,12.1624,40.7889,255,255,255
53250,-72.6117,12.1534,41.0671,255,255,255
53500,-73.012,12.1443,41.3451,255,255,255
53750,-73.412,12.1352,41.6229,255,255,255
54000,-73.8116,12.1262,41.9005,255,255,255
54250,-74.2109,12.1172,42.1778,255,255,255
54500,-74.6098,12.1081,42.4548,255,255,255
54750,-75.0082,12.0991,42.7315,255,255,255
55000,-75.4063,12.0901,43.008,255,255,255
55250,-75.8039,12.0811,43.2841,255,255,255
55500,-76.201,12.0721,43.5599,255,255,255
55750,-76.5976,12.0632,43.8353,255,255,255
56000,-76.9937,12.0542,44.1104,255,255,255
56250,-77.3893,12.0453,44.3852,255,255,255
56500,-77.7844,12.0364,44.6595,255,255,255
56750,-78.1789,12.0275,44.9335,255,255,255
57000,-78.5728,12.0186,45.207,255,255,255
57250,-78.9661,12.0097,45.4801,255,255,255
57500,-79.3587,12.0009,45.7528,255,255,255
57750,-79.7507,11.992,46.025,255,255,255
58000,-80.142,11.9832,46.2967,255,255,255
58250,-80.5327,11.9744,46.5679,255,255,255
58500,-80.9226,11.9656,46.8387,255,255,255
58750,-81.3117,11.9568,47.1089,255,255,255
59000,-81.7002,11.9481,47.3787,255,255,255
59250,-82.0878,11.9393,47.6478,255,255,255
59500,-82.4747,11.9306,47.9164,255,255,255
59750,-82.8607,11.9219,48.1845,255,255,255
60000,-83.2459,11.9133,48.452,255,255,255
60250,-83.6303,11.9046,48.7188,255,255,255
60500,-84.0137,11.896,48.9851,255,255,255
60750,-84.3963,11.8874,49.2507,255,255,255
61000,-84.7779,11.8788,49.5157,255,255,255
61250,-85.1586,11.8702,49.78,255,255,255
61500,-85.5384,11.8617,50.0437,255,255,255
61750,-85.9171,11.8532,50.3066,255,255,255
62000,-86.2949,11.8447,50.5689,255,255,255
62250,-86.6716,11.8362,50.8305,255,255,255
62500,-87.0473,11.8278,51.0913,255,255,255
62750,-87.422,11.8194,51.3514,255,255,255
63000,-87.7955,11.811,51.6108,255,255,255
63250,-88.1679,11.8027,51.8693,255,255,255
63500,-88.5393,11.7943,52.1271,255,255,255
63750,-88.9094,11.786,52.3841,255,255,255
64000,-89.2784,11.7777,52.6403,255,255,255
64250,-89.6463,11.7695,52.8957,255,255,255
64500,-90.0129,11.7613,53.1502,255,255,255
64750,-90.3782,11.7531,53.4038,255,255,255
65000,-90.7424,11.7449,53.6566,255,255,255
65250,-91.1052,11.7368,53.9085,255,255,255
65500,-91.4668,11.7287,54.1595,255,255,255
65750,-91.8271,11.7206,54.4096,255,255,255
66000,-92.186,11.7126,54.6588,255,255,255
66250,-92.5436,11.7046,54.907,255,255,255
66500,-92.8998,11.6966,55.1543,255,255,255
66750,-93.2546,11.6886,55.4006,255,255,255
67000,-93.608,11.6807,55.6459,255,255,255
67250,-93.96,11.6729,55.8903,255,255,255
67500,-94.3105,11.665,56.1336,255,255,255
67750,-94.6595,11.6572,56.3759,255,255,255
68000,-95.0071,11.6494,56.6171,255,255,255
68250,-95.3531,11.6417,56.8573,255,255,255
68500,-95.6976,11.634,57.0964,255,255,255
68750,-96.0405,11.6263,57.3345,255,255,255
69000,-96.3819,11.6187,57.5714,255,255,255
69250,-96.7216,11.6111,57.8073,255,255,255
69500,-97.0598,11.6035,58.042,255,255,255
69750,-97.3963,11.596,58.2755,255,255,255
70000,-97.7311,11.5886,58.508,255,255,255
70250,-98.0643,11.5811,58.7392,255,255,255
70500,-98.3957,11.5737,58.9693,255,255,255
70750,-98.7255,11.5664,59.1981,255,255,255
71000,-99.0535,11.559,59.4258,255,255,255
71250,-99.3797,11.5517,59.6522,255,255,255
71500,-99.7041,11.5445,59.8774,255,255,255
71750,-100.0268,11.5373,60.1014,255,255,255
72000,-100.3476,11.5302,60.324,255,255,255
72250,-100.6666,11.523,60.5454,255,255,255
72500,-100.9837,11.516,60.7655,255,255,255
72750,-101.2989,11.5089,60.9843,255,255,255
73000,-101.6122,11.502,61.2018,255,255,255
73250,-101.9236,11.495,61.4179,255,255,255
73500,-102.233,11.4881,61.6327,255,255,255
73750,-102.5405,11.4813,61.846,255,255,255
74000,-102.846,11.4745,62.0581,255,255,255
74250,-103.1495,11.4677,62.2687,255,255,255
74500,-103.4509,11.461,62.4779,255,255,255
74750,-103.7503,11.4543,62.6857,255,255,255
75000,-104.0476,11.4477,62.892,255,255,255
75250,-104.3428,11.4411,63.0969,255,255,255
75500,-104.6359,11.4346,63.3003,255,255,255
75750,-104.9269,11.4281,63.5023,255,255,255
76000,-105.2158,11.4217,63.7027,255,255,255
76250,-105.5024,11.4153,63.9017,255,255,255
76500,-105.7869,11.409,64.0991,255,255,255
76750,-106.0691,11.4027,64.295,255,255,255
77000,-106.3491,11.3965,64.4893,255,255,255
77250,-106.6269,11.3903,64.682,255,255,255
77500,-106.9023,11.3842,64.8732,255,255,255
77750,-107.1755,11.3781,65.0628,255,255,255
78000,-107.4464,11.3721,65.2508,255,255,255
78250,-107.7149,11.3661,65.4371,255,255,255
78500,-107.9811,11.3602,65.6218,255,255,255
78750,-108.2448,11.3543,65.8049,255,255,255
79000,-108.5062,11.3485,65.9862,255,255,255
79250,-108.7652,11.3428,66.1659,255,255,255
79500,-109.0217,11.3371,66.344,255,255,255
79750,-109.2757,11.3314,66.5203,255,255,255
80000,-109.5273,11.3258,66.6948,255,255,255
80250,-109.7764,11.3203,66.8677,255,255,255
80500,-110.0229,11.3148,67.0388,255,255,255
80750,-110.2669,11.3094,67.2081,255,255,255
81000,-110.5084,11.3041,67.3756,255,255,255
81250,-110.7472,11.2988,67.5414,255,255,255
81500,-110.9835,11.2935,67.7053,255,255,255
81750,-111.2171,11.2883,67.8674,255,255,255
82000,-111.4481,11.2832,68.0277,255,255,255
82250,-111.6764,11.2781,68.1861,255,255,255
82500,-111.902,11.2731,68.3427,255,255,255
82750,-112.1249,11.2682,68.4973,255,255,255
83000,-112.3451,11.2633,68.6501,255,255,255
83250,-112.5625,11.2585,68.801,255,255,255
83500,-112.7771,11.2537,68.9499,255,255,255
83750,-112.989,11.249,69.0969,255,255,255
84000,-113.1981,11.2444,69.242,255,255,255
84250,-113.4043,11.2398,69.3851,255,255,255
84500,-113.6076,11.2353,69.5262,255,255,255
84750,-113.8081,11.2309,69.6653,255,255,255
85000,-114.0057,11.2265,69.8024,255,255,255
85250,-114.2004,11.2222,69.9375,255,255,255
85500,-114.3922,11.2179,70.0706,255,255,255
85750,-114.581,11.2138,70.2015,255,255,255
86000,-114.7668,11.2097,70.3305,255,255,255
86250,-114.9496,11.2056,70.4573,255,255,255
86500,-115.1294,11.2016,70.5821,255,255,255
86750,-115.3062,11.1977,70.7047,255,255,255
87000,-115.4799,11.1939,70.8253,255,255,255
87250,-115.6505,11.1901,70.9436,255,255,255
87500,-115.818,11.1864,71.0599,255,255,255
87750,-115.9825,11.1827,71.174,255,255,255
88000,-116.1437,11.1792,71.2859,255,255,255
88250,-116.3018,11.1757,71.3955,255,255,255
88500,-116.4568,11.1722,71.503,255,255,255
88750,-116.6085,11.1689,71.6083,255,255,255
89000,-116.757,11.1656,71.7113,255,255,255
89250,-116.9022,11.1624,71.8121,255,255,255
89500,-117.0442,11.1593,71.9106,255,255,255
89750,-117.1829,11.1562,72.0069,255,255,255
90000,-117.3183,11.1532,72.1008,255,255,255
90250,-117.4504,11.1503,72.1924,255,255,255
90500,-117.5791,11.1474,72.2818,255,255,255
90750,-117.7045,11.1447,72.3687,255,255,255
91000,-117.8265,11.142,72.4534,255,255,255
91250,-117.945,11.1393,72.5356,255,255,255
91500,-118.0602,11.1368,72.6155,255,255,255
91750,-118.1719,11.1343,72.693,255,255,255
92000,-118.2801,11.1319,72.7681,255,255,255
92250,-118.3848,11.1296,72.8407,255,255,255
92500,-118.486,11.1274,72.9109,255,255,255
92750,-118.5837,11.1252,72.9787,255,255,255
93000,-118.6778,11.1232,73.044,255,255,255
93250,-118.7684,11.1212,73.1069,255,255,255
93500,-118.8554,11.1192,73.1672,255,255,255
93750,-118.9387,11.1174,73.225,255,255,255
94000,-119.0184,11.1156,73.2803,255,255,255
94250,-119.0945,11.114,73.3331,255,255,255
94500,-119.1669,11.1124,73.3833,255,255,255
94750,-119.2356,11.1108,73.431,255,255,255
95000,-119.3006,11.1094,73.476,255,255,255
95250,-119.3618,11.1081,73.5185,255,255,255
95500,-119.4193,11.1068,73.5584,255,255,255
95750,-119.473,11.1056,73.5957,255,255,255
96000,-119.5229,11.1045,73.6303,255,255,255
96250,-119.569,11.1035,73.6622,255,255,255
96500,-119.6112,11.1026,73.6916,255,255,255
96750,-119.6496,11.1017,73.7182,255,255,255
97000,-119.6841,11.101,73.7421,255,255,255
97250,-119.7147,11.1003,73.7633,255,255,255
97500,-119.7414,11.0997,73.7819,255,255,255
97750,-119.7641,11.0992,73.7976,255,255,255
98000,-119.7829,11.0988,73.8106,255,255,255
98250,-119.7977,11.0984,73.8209,255,255,255
98500,-119.8085,11.0982,73.8284,255,255,255
98750,-119.8152,11.0981,73.8331,255,255,255
99000,-119.8179,11.098,73.835,255,255,255
99250,-119.818,11.098,73.835,255,255,255
99500,-119.818,11.098,73.835,255,255,255
99750,-119.818,11.098,73.835,255,255,255
100000,-119.818,11.098,73.835,255,255,255
100250,-119.818,11.098,73.835,255,255,255
100500,-119.818,11.098,73.835,255,255,255
100750,-119.818,11.098,73.835,255,255,255
101000,-119.818,11.098,73.835,255,255,255
101250,-119.818,11.098,73.835,255,255,255
101500,-119.818,11.098,73.835,255,255,255
101750,-119.818,11.098,73.835,255,255,255
102000,-119.818,11.098,73.835,255,255,255
102250,-119.818,11.098,73.835,255,255,255
102500,-119.818,11.098,73.835,255,255,255
102750,-119.818,11.098,73.835,255,255,255
103000,-119.818,11.098,73.835,255,255,255
103250,-119.818,11.098,73.835,255,255,255
103500,-119.818,11.098,73.835,255,255,255
103750,-119.818,11.098,73.835,255,255,255
104000,-119.818,11.098,73.835,255,255,255
104250,-119.818,11.098,73.835,255,255,255
104500,-119.818,11.098,73.835,255,255,255
104750,-119.818,11.098,73.835,255,255,255
105000,-119.818,11.098,73.835,255,255,255
105250,-119.818,11.098,73.835,255,255,255
105500,-119.818,11.098,73.835,255,255,255
105750,-119.818,11.098,73.835,255,255,255
106000,-119.818,11.098,73.835,255,255,255
106250,-119.818,11.098,73.835,255,255,255
106500,-119.818,11.098,73.835,255,255,255
106750,-119.818,11.098,73.835,255,255,255
107000,-119.818,11.098,73.835,255,255,255
107250,-119.818,11.098,73.835,255,255,255
107500,-119.818,11.098,73.835,255,255,255
107750,-119.818,11.098,73.835,255,255,255
108000,-119.818,11.098,73.835,255,255,255
108250,-119.818,11.098,73.835,255,255,255
108500,-119.818,11.098,73.835,255,255,255
108750,-119.818,11.098,73.835,255,255,255
109000,-119.818,11.098,73.835,255,255,255
109250,-119.818,11.098,73.835,255,255,255
109500,-119.818,11.098,73.835,255,255,255
109750,-119.818,11.098,73.835,255,255,255
110000,-119.818,11.098,73.835,255,255,255
110250,-119.818,11.098,73.835,255,255,255
110500,-119.818,11.098,73.835,255,255,255
110750,-119.818,11.098,73.835,255,255,255
111000,-119.818,11.098,73.835,255,255,255
111250,-119.818,11.098,73.835,255,255,255
111500,-119.818,11.098,73.835,255,255,255
111750,-119.818,11.098,73.835,255,255,255
112000,-119.818,11.098,73.835,255,255,255
112250,-119.818,11.098,73.835,255,255,255
112500,-119.818,11.098,73.835,255,255,255
112750,-119.818,11.098,73.835,255,255,255
113000,-119.818,11.098,73.835,255,255,255
113250,-119.818,11.098,73.835,255,255,255
113500,-119.818,11.098,73.835,255,255,255
113750,-119.818,11.098,73.835,255,255,255
114000,-119.818,11.098,73.835,255,255,255
114250,-119.818,11.098,73.835,255,255,255
