Time [msec],x [m],y [m],z [m],Red,Green,Blue
0,-10.5,-7.5,0,255,255,255
250,-10.4922,-7.4961,0.0256,255,255,255
500,-10.4631,-7.4814,0.1218,255,255,255
750,-10.4135,-7.4564,0.2854,255,255,255
1000,-10.3447,-7.4218,0.5121,255,255,255
1250,-10.2581,-7.3782,0.7979,255,255,255
1500,-10.1549,-7.3263,1.1383,255,255,255
1750,-10.0364,-7.2666,1.5292,255,255,255
2000,-9.9039,-7.1999,1.9664,255,255,255
2250,-9.7587,-7.1268,2.4456,255,255,255
2500,-9.6021,-7.0478,2.9626,255,255,255
2750,-9.4354,-6.9638,3.5132,255,255,255
3000,-9.2598,-6.8753,4.0931,255,255,255
3250,-9.0767,-6.7829,4.6981,255,255,255
3500,-8.8873,-6.6874,5.324,255,255,255
3750,-8.6929,-6.5893,5.9666,255,255,255
4000,-8.4948,-6.4893,6.6216,255,255,255
4250,-8.2943,-6.3881,7.2848,255,255,255
4500,-8.0927,-6.2862,7.9519,255,255,255
4750,-7.8913,-6.1844,8.6188,255,255,255
5000,-7.6913,-6.0833,9.2812,255,255,255
5250,-7.4941,-5.9835,9.9348,255,255,255
5500,-7.3009,-5.8856,10.5755,255,255,255
5750,-7.1131,-5.7904,11.199,255,255,255
6000,-6.9318,-5.6985,11.8011,255,255,255
6250,-6.7585,-5.6104,12.3775,255,255,255
6500,-6.5944,-5.5269,12.9241,255,255,255
6750,-6.4407,-5.4486,13.4366,255,255,255
7000,-6.2955,-5.3748,13.9215,255,255,255
7250,-6.1533,-5.3032,14.3968,255,255,255
7500,-6.014,-5.2338,14.8629,255,255,255
7750,-5.8776,-5.1666,15.3197,255,255,255
8000,-5.7442,-5.1017,15.7669,255,255,255
8250,-5.6138,-5.0391,16.2045,255,255,255
8500,-5.4864,-4.9788,16.6324,255,255,255
8750,-5.3621,-4.9209,17.0504,255,255,255
9000,-5.2409,-4.8654,17.4583,255,255,255
9250,-5.1229,-4.8122,17.8562,255,255,255
9500,-5.008,-4.7615,18.2438,255,255,255
9750,-4.8964,-4.7132,18.6211,255,255,255
10000,-4.788,-4.6675,18.9878,255,255,255
10250,-4.6829,-4.6242,19.3439,255,255,255
10500,-4.5811,-4.5835,19.6893,255,255,255
10750,-4.4827,-4.5454,20.0238,255,255,255
11000,-4.3877,-4.5099,20.3473,255,255,255
11250,-4.2962,-4.477,20.6597,255,255,255
11500,-4.2081,-4.4468,20.9609,255,255,255
11750,-4.1235,-4.4192,21.2507,255,255,255
12000,-4.0424,-4.3944,21.529,255,255,255
12250,-3.9649,-4.3723,21.7957,255,255,255
12500,-3.8911,-4.353,22.0506,255,255,255
12750,-3.8209,-4.3365,22.2937,255,255,255
13000,-3.7544,-4.3228,22.5248,255,255,255
13250,-3.6916,-4.312,22.7437,255,255,255
13500,-3.6325,-4.304,22.9505,255,255,255
13750,-3.5773,-4.299,23.1451,255,255,255
14000,-3.5255,-4.2967,23.3282,255,255,255
14250,-3.4773,-4.297,23.5001,255,255,255
14500,-3.4324,-4.2999,23.6611,255,255,255
14750,-3.3908,-4.3054,23.8117,255,255,255
15000,-3.3524,-4.3132,23.9521,255,255,255
15250,-3.317,-4.3234,24.0827,255,255,255
15500,-3.2846,-4.3358,24.2039,255,255,255
15750,-3.255,-4.3504,24.316,255,255,255
16000,-3.2282,-4.367,24.4193,255,255,255
16250,-3.204,-4.3856,24.5142,255,255,255
16500,-3.1823,-4.4062,24.601,255,255,255
16750,-3.1631,-4.4285,24.6801,255,255,255
17000,-3.1462,-4.4526,24.7518,255,255,255
17250,-3.1316,-4.4783,24.8165,255,255,255
17500,-3.119,-4.5055,24.8745,255,255,255
17750,-3.1085,-4.5343,24.9262,255,255,255
18000,-3.0998,-4.5644,24.9719,255,255,255
18250,-3.093,-4.5958,25.0119,255,255,255
18500,-3.0879,-4.6284,25.0467,255,255,255
18750,-3.0843,-4.6622,25.0765,255,255,255
19000,-3.0823,-4.697,25.1017,255,255,255
19250,-3.0816,-4.7328,25.1226,255,255,255
19500,-3.0823,-4.7694,25.1396,255,255,255
19750,-3.0841,-4.8069,25.1531,255,255,255
20000,-3.087,-4.845,25.1633,255,255,255
20250,-3.0908,-4.8837,25.1706,255,255,255
20500,-3.0955,-4.923,25.1755,255,255,255
20750,-3.101,-4.9628,25.1781,255,255,255
21000,-3.1071,-5.0028,25.1789,255,255,255
21250,-3.1138,-5.0432,25.1782,255,255,255
21500,-3.121,-5.0836,25.1768,255,255,255
21750,-3.1286,-5.1239,25.1755,255,255,255
22000,-3.1367,-5.1638,25.1744,255,255,255
22250,-3.1451,-5.2032,25.1734,255,255,255
22500,-3.154,-5.2421,25.1727,255,255,255
22750,-3.1632,-5.2802,25.1723,255,255,255
23000,-3.1728,-5.3174,25.1721,255,255,255
23250,-3.1827,-5.3537,25.1723,255,255,255
23500,-3.1929,-5.3889,25.1728,255,255,255
23750,-3.2034,-5.4228,25.1737,255,255,255
24000,-3.2142,-5.4554,25.175,255,255,255
24250,-3.2251,-5.4864,25.1767,255,255,255
24500,-3.2363,-5.5159,25.1788,255,255,255
24750,-3.2477,-5.5436,25.1815,255,255,255
25000,-3.2593,-5.5694,25.1846,255,255,255
25250,-3.2709,-5.5932,25.1883,255,255,255
25500,-3.2828,-5.6148,25.1925,255,255,255
25750,-3.2947,-5.6342,25.1974,255,255,255
26000,-3.3067,-5.6512,25.2028,255,255,255
26250,-3.3187,-5.6657,25.2089,255,255,255
26500,-3.3308,-5.6775,25.2157,255,255,255
26750,-3.3429,-5.6866,25.2232,255,255,255
27000,-3.3549,-5.6927,25.2314,255,255,255
27250,-3.367,-5.6958,25.2404,255,255,255
27500,-3.379,-5.6967,25.25,255,255,255
27750,-3.391,-5.6971,25.2598,255,255,255
28000,-3.4029,-5.6971,25.2698,255,255,255
28250,-3.4149,-5.697,25.28,255,255,255
28500,-3.4269,-5.6967,25.2902,255,255,255
28750,-3.4388,-5.6965,25.3006,255,255,255
29000,-3.4507,-5.6964,25.3109,255,255,255
29250,-3.4627,-5.6965,25.3213,255,255,255
29500,-3.4746,-5.697,25.3316,255,255,255
29750,-3.4866,-5.6979,25.3418,255,255,255
30000,-3.4985,-5.6994,25.3519,255,255,255
30250,-3.5105,-5.7016,25.3619,255,255,255
30500,-3.5224,-5.7046,25.3716,255,255,255
30750,-3.5344,-5.7085,25.3811,255,255,255
31000,-3.5463,-5.7133,25.3903,255,255,255
31250,-3.5583,-5.7194,25.3991,255,255,255
31500,-3.5703,-5.7266,25.4077,255,255,255
31750,-3.5823,-5.7353,25.4158,255,255,255
32000,-3.5943,-5.7454,25.4234,255,255,255
32250,-3.6063,-5.757,25.4306,255,255,255
32500,-3.6184,-5.7704,25.4373,255,255,255
32750,-3.6305,-5.7855,25.4434,255,255,255
33000,-3.6426,-5.8026,25.4489,255,255,255
33250,-3.6547,-5.8217,25.4538,255,255,255
33500,-3.6668,-5.8429,25.458,255,255,255
33750,-3.679,-5.8664,25.4615,255,255,255
34000,-3.6912,-5.8923,25.4642,255,255,255
34250,-3.7034,-5.9206,25.4661,255,255,255
34500,-3.7156,-5.9515,25.4672,255,255,255
34750,-3.7279,-5.9851,25.4674,255,255,255
35000,-3.7402,-6.0215,25.4667,255,255,255
35250,-3.7526,-6.0608,25.465,255,255,255
35500,-3.765,-6.1032,25.4624,255,255,255
35750,-3.7774,-6.1487,25.4587,255,255,255
36000,-3.7899,-6.1975,25.4539,255,255,255
36250,-3.8024,-6.2491,25.4476,255,255,255
36500,-3.8148,-6.3027,25.4392,255,255,255
36750,-3.8271,-6.3581,25.4286,255,255,255
37000,-3.8394,-6.4152,25.4162,255,255,255
37250,-3.8516,-6.4739,25.4021,255,255,255
37500,-3.8637,-6.5341,25.3863,255,255,255
37750,-3.8758,-6.5957,25.3692,255,255,255
38000,-3.8879,-6.6585,25.3507,255,255,255
38250,-3.8999,-6.7224,25.3312,255,255,255
38500,-3.9119,-6.7874,25.3107,255,255,255
38750,-3.9239,-6.8533,25.2894,255,255,255
39000,-3.9358,-6.9199,25.2674,255,255,255
39250,-3.9477,-6.9873,25.2449,255,255,255
39500,-3.9597,-7.0553,25.2221,255,255,255
39750,-3.9716,-7.1237,25.1992,255,255,255
40000,-3.9834,-7.1924,25.1762,255,255,255
40250,-3.9953,-7.2614,25.1533,255,255,255
40500,-4.0073,-7.3305,25.1308,255,255,255
40750,-4.0192,-7.3997,25.1086,255,255,255
41000,-4.0311,-7.4687,25.0871,255,255,255
41250,-4.0431,-7.5375,25.0663,255,255,255
41500,-4.055,-7.606,25.0465,255,255,255
41750,-4.067,-7.674,25.0277,255,255,255
42000,-4.0791,-7.7415,25.0101,255,255,255
42250,-4.0912,-7.8084,24.9939,255,255,255
42500,-4.1033,-7.8744,24.9793,255,255,255
42750,-4.1155,-7.9395,24.9663,255,255,255
43000,-4.1278,-8.0037,24.9552,255,255,255
43250,-4.1401,-8.0667,24.9461,255,255,255
43500,-4.1525,-8.1285,24.9392,255,255,255
43750,-4.1649,-8.189,24.9345,255,255,255
44000,-4.1776,-8.248,24.9326,255,255,255
44250,-4.1911,-8.3057,24.9335,255,255,255
44500,-4.2051,-8.3619,24.9371,255,255,255
44750,-4.2196,-8.4166,24.9432,255,255,255
45000,-4.2345,-8.4698,24.9516,255,255,255
45250,-4.2498,-8.5214,24.9621,255,255,255
45500,-4.2653,-8.5714,24.9745,255,255,255
45750,-4.2811,-8.6197,24.9886,255,255,255
46000,-4.2969,-8.6663,25.0041,255,255,255
46250,-4.3128,-8.7111,25.0209,255,255,255
46500,-4.3286,-8.754,25.0388,255,255,255
46750,-4.3443,-8.7951,25.0575,255,255,255
47000,-4.3597,-8.8343,25.0769,255,255,255
47250,-4.3749,-8.8715,25.0967,255,255,255
47500,-4.3897,-8.9066,25.1168,255,255,255
47750,-4.404,-8.9397,25.1369,255,255,255
48000,-4.4178,-8.9707,25.1568,255,255,255
48250,-4.431,-8.9996,25.1764,255,255,255
48500,-4.4434,-9.0262,25.1954,255,255,255
48750,-4.4551,-9.0505,25.2136,255,255,255
49000,-4.466,-9.0726,25.2307,255,255,255
49250,-4.4759,-9.0923,25.2467,255,255,255
49500,-4.4847,-9.1095,25.2613,255,255,255
49750,-4.4925,-9.1244,25.2743,255,255,255
50000,-4.4991,-9.1367,25.2855,255,255,255
50250,-4.5044,-9.1464,25.2947,255,255,255
50500,-4.5084,-9.1536,25.3016,255,255,255
50750,-4.5109,-9.1581,25.3061,255,255,255
51000,-4.512,-9.16,25.308,255,255,255
51250,-4.512,-9.16,25.308,255,255,255
51500,-4.512,-9.16,25.308,255,255,255
51750,-4.512,-9.16,25.308,255,255,255
52000,-4.512,-9.16,25.308,255,255,255
52250,-4.512,-9.16,25.308,255,255,255
52500,-4.512,-9.16,25.308,255,255,255
52750,-4.512,-9.16,25.308,255,255,255
53000,-4.512,-9.16,25.308,255,255,255
53250,-4.512,-9.16,25.308,255,255,255
53500,-4.512,-9.16,25.308,255,255,255
53750,-4.512,-9.16,25.308,255,255,255
54000,-4.512,-9.16,25.308,255,255,255
54250,-4.501,-9.1631,25.243,255,255,255
54500,-4.4756,-9.1702,25.0344,255,255,255
54750,-4.4652,-9.1732,24.7535,255,255,255
55000,-4.4997,-9.1635,24.4744,255,255,255
55250,-4.5786,-9.1413,24.2337,255,255,255
55500,-4.6586,-9.1188,23.9942,255,255,255
55750,-4.7624,-9.0897,23.7149,255,255,255
56000,-4.9242,-9.0448,23.3389,255,255,255
56250,-5.1269,-8.9886,22.8942,255,255,255
56500,-5.3523,-8.9261,22.4108,255,255,255
56750,-5.5824,-8.8624,21.9184,255,255,255
57000,-5.7992,-8.8024,21.447,255,255,255
57250,-5.9982,-8.7472,21.0043,255,255,255
57500,-6.1969,-8.6922,20.5624,255,255,255
57750,-6.3956,-8.6371,20.1207,255,255,255
58000,-6.5945,-8.582,19.679,255,255,255
58250,-6.7936,-8.5269,19.2375,255,255,255
58500,-6.9927,-8.4718,18.7961,255,255,255
58750,-7.192,-8.4166,18.3547,255,255,255
59000,-7.3913,-8.3614,17.9135,255,255,255
59250,-7.5908,-8.3062,17.4724,255,255,255
59500,-7.7905,-8.251,17.0314,255,255,255
59750,-7.9902,-8.1957,16.5905,255,255,255
60000,-8.1901,-8.1404,16.1497,255,255,255
60250,-8.39,-8.085,15.709,255,255,255
60500,-8.5901,-8.0297,15.2685,255,255,255
60750,-8.7904,-7.9743,14.828,255,255,255
61000,-8.9802,-7.9212,14.3783,255,255,255
61250,-9.1787,-7.8662,13.9363,255,255,255
61500,-9.3772,-7.8112,13.4943,255,255,255
61750,-9.5757,-7.7562,13.0523,255,255,255
62000,-9.7742,-7.7012,12.6103,255,255,255
62250,-9.9765,-7.6454,12.1627,255,255,255
62500,-10.1719,-7.5914,11.7294,255,255,255
62750,-10.3325,-7.547,11.3729,255,255,255
63000,-10.4373,-7.5179,11.0994,255,255,255
63250,-10.4948,-7.5018,10.8355,255,255,255
63500,-10.5176,-7.4954,10.5846,255,255,255
63750,-10.5179,-7.4952,10.3522,255,255,255
64000,-10.508,-7.4978,10.1438,255,255,255
64250,-10.5002,-7.4999,9.9648,255,255,255
64500,-10.5,-7.5,9.8124,255,255,255
64750,-10.5,-7.5,9.6723,255,255,255
65000,-10.5,-7.5,9.5419,255,255,255
65250,-10.5,-7.5,9.4188,255,255,255
65500,-10.5,-7.5,9.3008,255,255,255
65750,-10.5,-7.5,9.1855,255,255,255
66000,-10.5,-7.5,9.0707,255,255,255
66250,-10.5,-7.5,8.9539,255,255,255
66500,-10.5,-7.5,8.8329,255,255,255
66750,-10.5,-7.5,8.708,255,255,255
67000,-10.5,-7.5,8.583,255,255,255
67250,-10.5,-7.5,8.458,255,255,255
67500,-10.5,-7.5,8.333,255,255,255
67750,-10.5,-7.5,8.208,255,255,255
68000,-10.5,-7.5,8.083,255,255,255
68250,-10.5,-7.5,7.958,255,255,255
68500,-10.5,-7.5,7.833,255,255,255
68750,-10.5,-7.5,7.708,255,255,255
69000,-10.5,-7.5,7.583,255,255,255
69250,-10.5,-7.5,7.458,255,255,255
69500,-10.5,-7.5,7.333,255,255,255
69750,-10.5,-7.5,7.208,255,255,255
70000,-10.5,-7.5,7.083,255,255,255
70250,-10.5,-7.5,6.958,255,255,255
70500,-10.5,-7.5,6.833,255,255,255
70750,-10.5,-7.5,6.708,255,255,255
71000,-10.5,-7.5,6.583,255,255,255
71250,-10.5,-7.5,6.458,255,255,255
71500,-10.5,-7.5,6.333,255,255,255
71750,-10.5,-7.5,6.208,255,255,255
72000,-10.5,-7.5,6.083,255,255,255
72250,-10.5,-7.5,5.958,255,255,255
72500,-10.5,-7.5,5.833,255,255,255
72750,-10.5,-7.5,5.708,255,255,255
73000,-10.5,-7.5,5.584,255,255,255
73250,-10.5,-7.5,5.459,255,255,255
73500,-10.5,-7.5,5.334,255,255,255
73750,-10.5,-7.5,5.209,255,255,255
74000,-10.5,-7.5,5.084,255,255,255
74250,-10.5,-7.5,4.959,255,255,255
74500,-10.5,-7.5,4.834,255,255,255
74750,-10.5,-7.5,4.709,255,255,255
75000,-10.5,-7.5,4.584,255,255,255
75250,-10.5,-7.5,4.459,255,255,255
75500,-10.5,-7.5,4.334,255,255,255
75750,-10.5,-7.5,4.209,255,255,255
76000,-10.5,-7.5,4.084,255,255,255
76250,-10.5,-7.5,3.959,255,255,255
76500,-10.5,-7.5,3.834,255,255,255
76750,-10.5,-7.5,3.709,255,255,255
77000,-10.5,-7.5,3.584,255,255,255
77250,-10.5,-7.5,3.459,255,255,255
77500,-10.5,-7.5,3.334,255,255,255
77750,-10.5,-7.5,3.209,255,255,255
78000,-10.5,-7.5,3.084,255,255,255
78250,-10.5,-7.5,2.959,255,255,255
78500,-10.5,-7.5,2.834,255,255,255
78750,-10.5,-7.5,2.709,255,255,255
79000,-10.5,-7.5,2.584,255,255,255
79250,-10.5,-7.5,2.459,255,255,255
79500,-10.5,-7.5,2.334,255,255,255
79750,-10.5,-7.5,2.209,255,255,255
80000,-10.5,-7.5,2.084,255,255,255
80250,-10.5,-7.5,1.959,255,255,255
80500,-10.5,-7.5,1.834,255,255,255
80750,-10.5,-7.5,1.709,255,255,255
81000,-10.5,-7.5,1.584,255,255,255
81250,-10.5,-7.5,1.459,255,255,255
81500,-10.5,-7.5,1.334,255,255,255
81750,-10.5,-7.5,1.209,255,255,255
82000,-10.5,-7.5,1.084,255,255,255
82250,-10.5,-7.5,0.959,255,255,255
82500,-10.5,-7.5,0.834,255,255,255
82750,-10.5,-7.5,0.709,255,255,255
83000,-10.5,-7.5,0.5748,255,255,255
83250,-10.5,-7.5,0.4242,255,255,255
83500,-10.5,-7.5,0.2742,255,255,255
83750,-10.5,-7.5,0.142,255,255,255
84000,-10.5,-7.5,0.0452,255,255,255
84250,-10.5,-7.5,0.001,255,255,255
84500,-10.5,-7.5,0,255,255,255
84750,-10.5,-7.5,0,255,255,255
85000,-10.5,-7.5,0,255,255,255
85250,-10.5,-7.5,0,255,255,255
85500,-10.5,-7.5,0,255,255,255
85750,-10.5,-7.5,0,255,255,255
86000,-10.5,-7.5,0,255,255,255
86250,-10.5,-7.5,0,255,255,255
86500,-10.5,-7.5,0,255,255,255
86750,-10.5,-7.5,0,255,255,255
87000,-10.5,-7.5,0,255,255,255
87250,-10.5,-7.5,0,255,255,255
87500,-10.5,-7.5,0,255,255,255
87750,-10.5,-7.5,0,255,255,255
88000,-10.5,-7.5,0,255,255,255
88250,-10.5,-7.5,0,255,255,255
88500,-10.5,-7.5,0,255,255,255
88750,-10.5,-7.5,0,255,255,255
89000,-10.5,-7.5,0,255,255,255
89250,-10.5,-7.5,0,255,255,255
89500,-10.5,-7.5,0,255,255,255
89750,-10.5,-7.5,0,255,255,255
90000,-10.5,-7.5,0,255,255,255
90250,-10.5,-7.5,0,255,255,255
90500,-10.5,-7.5,0,255,255,255
90750,-10.5,-7.5,0,255,255,255
91000,-10.5,-7.5,0,255,255,255
91250,-10.5,-7.5,0,255,255,255
91500,-10.5,-7.5,0,255,255,255
91750,-10.5,-7.5,0,255,255,255
92000,-10.5,-7.5,0,255,255,255
92250,-10.5,-7.5,0,255,255,255
92500,-10.5,-7.5,0,255,255,255
92750,-10.5,-7.5,0,255,255,255
93000,-10.5,-7.5,0,255,255,255
93250,-10.5,-7.5,0,255,255,255
93500,-10.5,-7.5,0,255,255,255
93750,-10.5,-7.5,0,255,255,255
94000,-10.5,-7.5,0,255,255,255
94250,-10.5,-7.5,0,255,255,255
94500,-10.5,-7.5,0,255,255,255
94750,-10.5,-7.5,0,255,255,255
95000,-10.5,-7.5,0,255,255,255
95250,-10.5,-7.5,0,255,255,255
95500,-10.5,-7.5,0,255,255,255
95750,-10.5,-7.5,0,255,255,255
96000,-10.5,-7.5,0,255,255,255
96250,-10.5,-7.5,0,255,255,255
96500,-10.5,-7.5,0,255,255,255
96750,-10.5,-7.5,0,255,255,255
97000,-10.5,-7.5,0,255,255,255
97250,-10.5,-7.5,0,255,255,255
97500,-10.5,-7.5,0,255,255,255
97750,-10.5,-7.5,0,255,255,255
98000,-10.5,-7.5,0,255,255,255
98250,-10.5,-7.5,0,255,255,255
98500,-10.5,-7.5,0,255,255,255
98750,-10.5,-7.5,0,255,255,255
99000,-10.5,-7.5,0,255,255,255
99250,-10.5,-7.5,0,255,255,255
99500,-10.5,-7.5,0,255,255,255
99750,-10.5,-7.5,0,255,255,255
100000,-10.5,-7.5,0,255,255,255
100250,-10.5,-7.5,0,255,255,255
100500,-10.5,-7.5,0,255,255,255
100750,-10.5,-7.5,0,255,255,255
101000,-10.5,-7.5,0,255,255,255
101250,-10.5,-7.5,0,255,255,255
101500,-10.5,-7.5,0,255,255,255
101750,-10.5,-7.5,0,255,255,255
102000,-10.5,-7.5,0,255,255,255
102250,-10.5,-7.5,0,255,255,255
102500,-10.5,-7.5,0,255,255,255
102750,-10.5,-7.5,0,255,255,255
103000,-10.5,-7.5,0,255,255,255
103250,-10.5,-7.5,0,255,255,255
103500,-10.5,-7.5,0,255,255,255
103750,-10.5,-7.5,0,255,255,255
104000,-10.5,-7.5,0,255,255,255
