Time [msec],x [m],y [m],z [m],Red,Green,Blue
0,-17.5,-10,0,255,255,255
250,-17.5,-10,0.0474,255,255,255
500,-17.5,-10,0.2195,255,255,255
750,-17.5,-10,0.5,255,255,255
1000,-17.5,-10,0.8703,255,255,255
1250,-17.5,-10,1.3121,255,255,255
1500,-17.5,-10,1.8083,255,255,255
1750,-17.5,-10,2.3437,255,255,255
2000,-17.5,-10,2.9005,255,255,255
2250,-17.5,-10,3.4611,255,255,255
2500,-17.5,-10,4.0076,255,255,255
2750,-17.5,-10,4.5223,255,255,255
3000,-17.5,-10,4.9874,255,255,255
3250,-17.5,-10,5.3853,255,255,255
3500,-17.5,-10,5.6982,255,255,255
3750,-17.5,-10,5.9084,255,255,255
4000,-17.5,-10,5.998,255,255,255
4250,-17.5,-10,6,255,255,255
4500,-17.5,-10,6,255,255,255
4750,-17.5,-10,6,255,255,255
5000,-17.5,-10,6,255,255,255
5250,-17.5,-10,6,255,255,255
5500,-17.5,-10,6,255,255,255
5750,-17.5,-10,6,255,255,255
6000,-17.5,-10,6,255,255,255
6250,-17.5016,-9.9922,6.0146,255,255,255
6500,-17.5079,-9.9626,6.0701,255,255,255
6750,-17.5186,-9.9114,6.166,255,255,255
7000,-17.5337,-9.8393,6.3009,255,255,255
7250,-17.553,-9.7469,6.4739,255,255,255
7500,-17.5764,-9.6349,6.6835,255,255,255
7750,-17.6038,-9.5039,6.9288,255,255,255
8000,-17.6349,-9.3545,7.2084,255,255,255
8250,-17.6697,-9.1874,7.5212,255,255,255
8500,-17.708,-9.0032,7.866,255,255,255
8750,-17.7497,-8.8025,8.2416,255,255,255
9000,-17.7946,-8.586,8.6468,255,255,255
9250,-17.8426,-8.3544,9.0804,255,255,255
9500,-17.8935,-8.1086,9.5404,255,255,255
9750,-17.947,-7.8504,10.0237,255,255,255
10000,-18.0029,-7.5806,10.5285,255,255,255
10250,-18.061,-7.3003,11.053,255,255,255
10500,-18.1211,-7.0103,11.5956,255,255,255
10750,-18.1831,-6.7116,12.1546,255,255,255
11000,-18.2467,-6.4051,12.728,255,255,255
11250,-18.3117,-6.0917,13.3144,255,255,255
11500,-18.378,-5.7724,13.9118,255,255,255
11750,-18.4453,-5.448,14.5187,255,255,255
12000,-18.5135,-5.1196,15.1332,255,255,255
12250,-18.5824,-4.788,15.7536,255,255,255
12500,-18.6518,-4.4542,16.3782,255,255,255
12750,-18.7215,-4.1191,17.0052,255,255,255
13000,-18.7912,-3.7836,17.633,255,255,255
13250,-18.8609,-3.4486,18.2597,255,255,255
13500,-18.9303,-3.1152,18.8838,255,255,255
13750,-18.9993,-2.7841,19.5033,255,255,255
14000,-19.0675,-2.4564,20.1166,255,255,255
14250,-19.1349,-2.1329,20.722,255,255,255
14500,-19.2013,-1.8146,21.3177,255,255,255
14750,-19.2664,-1.5024,21.902,255,255,255
15000,-19.3301,-1.1973,22.4732,255,255,255
15250,-19.3922,-0.9002,23.0295,255,255,255
15500,-19.4525,-0.6119,23.5692,255,255,255
15750,-19.5107,-0.3335,24.0906,255,255,255
16000,-19.5668,-0.0658,24.5919,255,255,255
16250,-19.6203,0.1893,25.0698,255,255,255
16500,-19.6706,0.4299,25.5202,255,255,255
16750,-19.7177,0.6554,25.9424,255,255,255
17000,-19.7615,0.8654,26.3355,255,255,255
17250,-19.8019,1.0596,26.6989,255,255,255
17500,-19.8389,1.2375,27.0318,255,255,255
17750,-19.8723,1.3988,27.3334,255,255,255
18000,-19.9022,1.543,27.6031,255,255,255
18250,-19.9284,1.6697,27.84,255,255,255
18500,-19.9509,1.7785,28.0435,255,255,255
18750,-19.9696,1.8691,28.2128,255,255,255
19000,-19.9844,1.941,28.3472,255,255,255
19250,-19.9953,1.9939,28.4459,255,255,255
19500,-20.0022,2.0272,28.5083,255,255,255
19750,-20.0049,2.0407,28.5335,255,255,255
20000,-20.005,2.041,28.534,255,255,255
20250,-20.005,2.041,28.534,255,255,255
20500,-20.005,2.041,28.534,255,255,255
20750,-20.005,2.041,28.534,255,255,255
21000,-20.005,2.041,28.534,255,255,255
21250,-20.005,2.041,28.534,255,255,255
21500,-20.005,2.041,28.534,255,255,255
21750,-20.005,2.041,28.534,255,255,255
22000,-20.005,2.041,28.534,255,255,255
22250,-20.005,2.041,28.534,255,255,255
22500,-20.005,2.041,28.534,255,255,255
22750,-20.005,2.041,28.534,255,255,255
23000,-20.005,2.041,28.534,255,255,255
23250,-20.005,2.041,28.534,255,255,255
23500,-20.005,2.041,28.534,255,255,255
23750,-20.0123,2.0535,28.5359,255,255,255
24000,-19.9968,2.1171,28.5319,255,255,255
24250,-19.8812,2.2598,28.5024,255,255,255
24500,-19.5874,2.5096,28.4275,255,255,255
24750,-19.1084,2.8698,28.3054,255,255,255
25000,-18.5862,3.2928,28.1723,255,255,255
25250,-18.1038,3.7503,28.0494,255,255,255
25500,-17.7423,4.2152,27.9572,255,255,255
25750,-17.5823,4.6601,27.9164,255,255,255
26000,-17.6822,5.0639,27.9416,255,255,255
26250,-17.9876,5.427,28.0191,255,255,255
26500,-18.4129,5.7524,28.1272,255,255,255
26750,-18.8725,6.0425,28.2441,255,255,255
27000,-19.2931,6.2995,28.351,255,255,255
27250,-19.6512,6.5182,28.4421,255,255,255
27500,-19.9316,6.6895,28.5135,255,255,255
27750,-20.1194,6.8042,28.5612,255,255,255
28000,-20.1992,6.8529,28.5816,255,255,255
28250,-20.201,6.854,28.582,255,255,255
28500,-20.201,6.854,28.582,255,255,255
28750,-20.201,6.854,28.582,255,255,255
29000,-20.201,6.854,28.582,255,255,255
29250,-20.201,6.854,28.582,255,255,255
29500,-20.201,6.854,28.582,255,255,255
29750,-20.201,6.854,28.582,255,255,255
30000,-20.201,6.854,28.582,255,255,255
30250,-20.201,6.854,28.582,255,255,255
30500,-20.201,6.854,28.582,255,255,255
30750,-20.201,6.854,28.582,255,255,255
31000,-20.201,6.854,28.582,255,255,255
31250,-20.201,6.854,28.582,255,255,255
31500,-20.201,6.854,28.582,255,255,255
31750,-20.201,6.854,28.582,255,255,255
32000,-20.201,6.854,28.582,255,255,255
32250,-20.1737,6.8425,28.5694,255,255,255
32500,-20.1,6.7986,28.5498,255,255,255
32750,-20.0352,6.7225,28.5748,255,255,255
33000,-20.0355,6.6151,28.6964,255,255,255
33250,-20.1184,6.4778,28.9292,255,255,255
33500,-20.2109,6.3126,29.2026,255,255,255
33750,-20.2669,6.1201,29.4721,255,255,255
34000,-20.2411,5.9009,29.6947,255,255,255
34250,-20.0884,5.6557,29.8269,255,255,255
34500,-19.7636,5.3849,29.8254,255,255,255
34750,-19.2375,5.0904,29.661,255,255,255
35000,-18.5552,4.7811,29.3659,255,255,255
35250,-17.7804,4.4694,28.9865,255,255,255
35500,-16.9768,4.1676,28.5688,255,255,255
35750,-16.2082,3.8879,28.1588,255,255,255
36000,-15.5276,3.6411,27.7949,255,255,255
36250,-14.9552,3.4335,27.489,255,255,255
36500,-14.5114,3.2727,27.252,255,255,255
36750,-14.217,3.166,27.0948,255,255,255
37000,-14.0927,3.121,27.0285,255,255,255
37250,-14.09,3.12,27.027,255,255,255
37500,-14.09,3.12,27.027,255,255,255
37750,-14.09,3.12,27.027,255,255,255
38000,-14.09,3.12,27.027,255,255,255
38250,-14.09,3.12,27.027,255,255,255
38500,-14.09,3.12,27.027,255,255,255
38750,-14.09,3.12,27.027,255,255,255
39000,-14.09,3.12,27.027,255,255,255
39250,-14.09,3.12,27.027,255,255,255
39500,-14.09,3.12,27.027,255,255,255
39750,-14.09,3.12,27.027,255,255,255
40000,-14.09,3.12,27.027,255,255,255
40250,-14.09,3.12,27.027,255,255,255
40500,-14.09,3.12,27.027,255,255,255
40750,-14.09,3.12,27.027,255,255,255
41000,-14.09,3.12,27.027,255,255,255
41250,-14.0955,3.1189,27.03,255,255,255
41500,-14.1199,3.1233,27.0485,255,255,255
41750,-14.1689,3.149,27.0953,255,255,255
42000,-14.2483,3.2117,27.1833,255,255,255
42250,-14.3603,3.3292,27.3063,255,255,255
42500,-14.5007,3.5049,27.4238,255,255,255
42750,-14.668,3.726,27.5148,255,255,255
43000,-14.8609,3.9793,27.5588,255,255,255
43250,-15.0782,4.2519,27.5356,255,255,255
43500,-15.3185,4.5305,27.4247,255,255,255
43750,-15.5807,4.7923,27.2178,255,255,255
44000,-15.864,5.0123,26.9512,255,255,255
44250,-16.1669,5.1889,26.6664,255,255,255
44500,-16.4883,5.3209,26.4046,255,255,255
44750,-16.8266,5.4071,26.207,255,255,255
45000,-17.1499,5.4463,26.114,255,255,255
45250,-17.4709,5.4635,26.1498,255,255,255
45500,-17.913,5.5038,26.3273,255,255,255
45750,-18.6677,5.6245,26.6446,255,255,255
46000,-19.8338,5.8483,27.0607,255,255,255
46250,-21.2744,6.1401,27.5423,255,255,255
46500,-22.8483,6.4643,28.0561,255,255,255
46750,-24.4146,6.785,28.5692,255,255,255
47000,-25.904,7.0848,29.066,255,255,255
47250,-27.2031,7.3353,29.5302,255,255,255
47500,-27.9871,7.4547,29.902,255,255,255
47750,-28.2701,7.4468,30.1827,255,255,255
48000,-28.5406,7.4358,30.4612,255,255,255
48250,-28.6871,7.3932,30.7168,255,255,255
48500,-28.8086,7.3442,30.9678,255,255,255
48750,-28.9298,7.2953,31.2184,255,255,255
49000,-29.0502,7.2467,31.4672,255,255,255
49250,-29.1694,7.1984,31.7136,255,255,255
49500,-29.2871,7.1508,31.957,255,255,255
49750,-29.4031,7.1038,32.1967,255,255,255
50000,-29.5171,7.0577,32.432,255,255,255
50250,-29.6287,7.0125,32.6622,255,255,255
50500,-29.7377,6.9685,32.887,255,255,255
50750,-29.8436,6.9257,33.1056,255,255,255
51000,-29.9462,6.8843,33.3173,255,255,255
51250,-30.0451,6.8444,33.5215,255,255,255
51500,-30.14,6.8061,33.7176,255,255,255
51750,-30.2306,6.7695,33.9048,255,255,255
52000,-30.3166,6.7349,34.0825,255,255,255
52250,-30.3977,6.7022,34.2501,255,255,255
52500,-30.4735,6.6717,34.4068,255,255,255
52750,-30.5438,6.6434,34.552,255,255,255
53000,-30.6082,6.6175,34.6851,255,255,255
53250,-30.6663,6.5941,34.8054,255,255,255
53500,-30.7179,6.5733,34.9122,255,255,255
53750,-30.7627,6.5553,35.0048,255,255,255
54000,-30.8004,6.5402,35.0827,255,255,255
54250,-30.8305,6.5281,35.145,255,255,255
54500,-30.8528,6.5191,35.1913,255,255,255
54750,-30.8671,6.5134,35.2207,255,255,255
55000,-30.8729,6.511,35.2327,255,255,255
55250,-30.873,6.511,35.233,255,255,255
55500,-30.873,6.511,35.233,255,255,255
55750,-30.873,6.511,35.233,255,255,255
56000,-30.873,6.511,35.233,255,255,255
56250,-30.873,6.511,35.233,255,255,255
56500,-30.873,6.511,35.233,255,255,255
56750,-30.873,6.511,35.233,255,255,255
57000,-30.873,6.511,35.233,255,255,255
57250,-30.873,6.511,35.233,255,255,255
57500,-30.873,6.511,35.233,255,255,255
57750,-30.873,6.511,35.233,255,255,255
58000,-30.873,6.511,35.233,255,255,255
58250,-30.873,6.511,35.233,255,255,255
58500,-30.873,6.511,35.233,255,255,255
58750,-30.873,6.511,35.233,255,255,255
59000,-30.873,6.511,35.233,255,255,255
59250,-30.8765,6.5161,35.2313,255,255,255
59500,-30.8896,6.5347,35.2252,255,255,255
59750,-30.9112,6.5656,35.2151,255,255,255
60000,-30.9403,6.6073,35.2015,255,255,255
60250,-30.976,6.6582,35.1848,255,255,255
60500,-31.0171,6.7169,35.1656,255,255,255
60750,-31.0625,6.7819,35.1443,255,255,255
61000,-31.1113,6.8516,35.1215,255,255,255
61250,-31.1624,6.9246,35.0976,255,255,255
61500,-31.2147,6.9994,35.0731,255,255,255
61750,-31.2671,7.0744,35.0486,255,255,255
62000,-31.3187,7.1481,35.0244,255,255,255
62250,-31.3684,7.2191,35.0012,255,255,255
62500,-31.4151,7.2859,34.9793,255,255,255
62750,-31.4578,7.3469,34.9594,255,255,255
63000,-31.4954,7.4006,34.9418,255,255,255
63250,-31.5268,7.4455,34.9271,255,255,255
63500,-31.5511,7.4802,34.9157,255,255,255
63750,-31.5671,7.5031,34.9082,255,255,255
64000,-31.5739,7.5128,34.9051,255,255,255
64250,-31.574,7.513,34.905,255,255,255
64500,-31.574,7.513,34.905,255,255,255
64750,-31.574,7.513,34.905,255,255,255
65000,-31.574,7.513,34.905,255,255,255
65250,-31.574,7.513,34.905,255,255,255
65500,-31.574,7.513,34.905,255,255,255
65750,-31.574,7.513,34.905,255,255,255
66000,-31.574,7.513,34.905,255,255,255
66250,-31.574,7.513,34.905,255,255,255
66500,-31.574,7.513,34.905,255,255,255
66750,-31.574,7.513,34.905,255,255,255
67000,-31.574,7.513,34.905,255,255,255
67250,-31.574,7.513,34.905,255,255,255
67500,-31.574,7.513,34.905,255,255,255
67750,-31.574,7.513,34.905,255,255,255
68000,-31.574,7.513,34.905,255,255,255
68250,-31.574,7.513,34.905,255,255,255
68500,-31.574,7.513,34.905,255,255,255
68750,-31.574,7.513,34.905,255,255,255
69000,-31.574,7.513,34.905,255,255,255
69250,-31.574,7.513,34.905,255,255,255
69500,-31.574,7.513,34.905,255,255,255
69750,-31.574,7.513,34.905,255,255,255
70000,-31.574,7.513,34.905,255,255,255
70250,-31.574,7.513,34.905,255,255,255
70500,-31.574,7.513,34.905,255,255,255
70750,-31.574,7.513,34.905,255,255,255
71000,-31.574,7.513,34.905,255,255,255
71250,-31.574,7.513,34.905,255,255,255
71500,-31.574,7.513,34.905,255,255,255
71750,-31.574,7.513,34.905,255,255,255
72000,-31.574,7.513,34.905,255,255,255
72250,-31.574,7.513,34.905,255,255,255
72500,-31.574,7.513,34.905,255,255,255
72750,-31.574,7.513,34.905,255,255,255
73000,-31.574,7.513,34.905,255,255,255
73250,-31.574,7.513,34.905,255,255,255
73500,-31.574,7.513,34.905,255,255,255
73750,-31.574,7.513,34.905,255,255,255
74000,-31.574,7.513,34.905,255,255,255
74250,-31.574,7.513,34.905,255,255,255
74500,-31.574,7.513,34.905,255,255,255
74750,-31.574,7.513,34.905,255,255,255
75000,-31.574,7.513,34.905,255,255,255
75250,-31.574,7.513,34.905,255,255,255
75500,-31.574,7.513,34.905,255,255,255
75750,-31.574,7.513,34.905,255,255,255
76000,-31.574,7.513,34.905,255,255,255
76250,-31.574,7.513,34.905,255,255,255
76500,-31.5686,7.5139,34.8954,255,255,255
76750,-31.5481,7.5176,34.8591,255,255,255
77000,-31.5127,7.5238,34.7964,255,255,255
77250,-31.4628,7.5326,34.7079,255,255,255
77500,-31.3988,7.5438,34.5946,255,255,255
77750,-31.3212,7.5575,34.4572,255,255,255
78000,-31.2305,7.5735,34.2963,255,255,255
78250,-31.1269,7.5917,34.1128,255,255,255
78500,-31.011,7.6121,33.9075,255,255,255
78750,-30.8832,7.6346,33.6811,255,255,255
79000,-30.7439,7.6591,33.4343,255,255,255
79250,-30.5935,7.6856,33.1679,255,255,255
79500,-30.4325,7.7139,32.8827,255,255,255
79750,-30.2613,7.7441,32.5795,255,255,255
80000,-30.0803,7.776,32.2589,255,255,255
80250,-29.89,7.8095,31.9218,255,255,255
80500,-29.6908,7.8446,31.5689,255,255,255
80750,-29.483,7.8812,31.2009,255,255,255
81000,-29.2672,7.9193,30.8187,255,255,255
81250,-29.0437,7.9586,30.423,255,255,255
81500,-28.8131,7.9993,30.0145,255,255,255
81750,-28.5756,8.0412,29.594,255,255,255
82000,-28.3318,8.0842,29.1623,255,255,255
82250,-28.0821,8.1282,28.7201,255,255,255
82500,-27.8269,8.1732,28.2682,255,255,255
82750,-27.5666,8.2191,27.8073,255,255,255
83000,-27.3016,8.2659,27.3383,255,255,255
83250,-27.0325,8.3134,26.8618,255,255,255
83500,-26.7595,8.3616,26.3786,255,255,255
83750,-26.4832,8.4104,25.8895,255,255,255
84000,-26.204,8.4597,25.3952,255,255,255
84250,-25.9222,8.5094,24.8966,255,255,255
84500,-25.6384,8.5596,24.3943,255,255,255
84750,-25.3529,8.61,23.8891,255,255,255
85000,-25.0663,8.6607,23.3817,255,255,255
85250,-24.7788,8.7116,22.8731,255,255,255
85500,-24.4909,8.7625,22.3638,255,255,255
85750,-24.2031,8.8134,21.8546,255,255,255
86000,-23.9158,8.8642,21.3464,255,255,255
86250,-23.6294,8.9149,20.8399,255,255,255
86500,-23.3444,8.9654,20.3357,255,255,255
86750,-23.0611,9.0156,19.8348,255,255,255
87000,-22.78,9.0654,19.3378,255,255,255
87250,-22.5016,9.1148,18.8456,255,255,255
87500,-22.2262,9.1636,18.3588,255,255,255
87750,-21.9543,9.2119,17.8782,255,255,255
88000,-21.6863,9.2595,17.4046,255,255,255
88250,-21.4227,9.3063,16.9387,255,255,255
88500,-21.1638,9.3524,16.4814,255,255,255
88750,-20.9101,9.3975,16.0333,255,255,255
89000,-20.6623,9.4416,15.5957,255,255,255
89250,-20.4214,9.4844,15.1701,255,255,255
89500,-20.1876,9.5259,14.757,255,255,255
89750,-19.9613,9.5661,14.3571,255,255,255
90000,-19.7429,9.6048,13.9708,255,255,255
90250,-19.5325,9.642,13.5989,255,255,255
90500,-19.3306,9.6778,13.2418,255,255,255
90750,-19.1375,9.7119,12.9001,255,255,255
91000,-18.9534,9.7444,12.5745,255,255,255
91250,-18.7788,9.7752,12.2654,255,255,255
91500,-18.6139,9.8043,11.9735,255,255,255
91750,-18.459,9.8316,11.6993,255,255,255
92000,-18.3145,9.857,11.4434,255,255,255
92250,-18.1807,9.8806,11.2064,255,255,255
92500,-18.0578,9.9022,10.9888,255,255,255
92750,-17.9463,9.9218,10.7912,255,255,255
93000,-17.8465,9.9393,10.6143,255,255,255
93250,-17.7586,9.9547,10.4585,255,255,255
93500,-17.6829,9.968,10.3244,255,255,255
93750,-17.6199,9.979,10.2127,255,255,255
94000,-17.5698,9.9878,10.1238,255,255,255
94250,-17.5329,9.9942,10.0584,255,255,255
94500,-17.5096,9.9983,10.0171,255,255,255
94750,-17.5002,10,10.0004,255,255,255
95000,-17.5,10,10,255,255,255
95250,-17.5,10,10,255,255,255
95500,-17.5,10,10,255,255,255
95750,-17.5,10,10,255,255,255
